# Time , Side-Flux
0.0000e+00,0.0000e+00
1.0000e+01,3.4243e-09
2.0000e+01,5.9741e-09
3.0000e+01,7.5683e-09
4.0000e+01,8.5108e-09
5.0000e+01,9.0712e-09
6.0000e+01,9.4138e-09
7.0000e+01,9.6303e-09
8.0000e+01,9.7717e-09
9.0000e+01,9.8669e-09
1.0000e+02,9.9329e-09
1.1000e+02,9.9799e-09
1.2000e+02,1.0014e-08
1.3000e+02,1.0039e-08
1.4000e+02,1.0059e-08
1.5000e+02,1.0073e-08
1.6000e+02,1.0085e-08
1.7000e+02,1.0094e-08
1.8000e+02,1.0101e-08
1.9000e+02,1.0107e-08
2.0000e+02,1.0113e-08
2.1000e+02,1.0117e-08
2.2000e+02,1.0121e-08
2.3000e+02,1.0123e-08
2.4000e+02,1.0125e-08
2.5000e+02,1.0126e-08
2.6000e+02,1.0127e-08
2.7000e+02,1.0128e-08
2.8000e+02,1.0129e-08
2.9000e+02,1.0131e-08
3.0000e+02,1.0132e-08
3.1000e+02,1.0132e-08
3.2000e+02,1.0134e-08
3.3000e+02,1.0137e-08
3.4000e+02,1.0139e-08
3.5000e+02,1.0138e-08
3.6000e+02,1.0136e-08
3.7000e+02,1.0138e-08
3.8000e+02,1.0142e-08
3.9000e+02,1.0145e-08
4.0000e+02,1.0146e-08
4.1000e+02,1.0144e-08
4.2000e+02,1.0142e-08
4.3000e+02,1.0142e-08
4.4000e+02,1.0142e-08
4.5000e+02,1.0144e-08
4.6000e+02,1.0144e-08
4.7000e+02,1.0144e-08
4.8000e+02,1.0144e-08
4.9000e+02,1.0143e-08
5.0000e+02,1.0143e-08
5.1000e+02,1.0143e-08
5.2000e+02,1.0143e-08
5.3000e+02,1.0143e-08
5.4000e+02,1.0143e-08
5.5000e+02,1.0143e-08
5.6000e+02,1.0142e-08
5.7000e+02,1.0141e-08
5.8000e+02,1.0140e-08
5.9000e+02,1.0140e-08
6.0000e+02,1.0142e-08
6.1000e+02,1.0146e-08
6.2000e+02,1.0147e-08
6.3000e+02,1.0145e-08
6.4000e+02,1.0142e-08
6.5000e+02,1.0140e-08
6.6000e+02,1.0141e-08
6.7000e+02,1.0142e-08
6.8000e+02,1.0141e-08
6.9000e+02,1.0133e-08
7.0000e+02,1.0125e-08
7.1000e+02,1.0122e-08
7.2000e+02,1.0123e-08
7.3000e+02,1.0129e-08
7.4000e+02,1.0134e-08
7.5000e+02,1.0135e-08
7.6000e+02,1.0132e-08
7.7000e+02,1.0128e-08
7.8000e+02,1.0124e-08
7.9000e+02,1.0121e-08
8.0000e+02,1.0120e-08
8.1000e+02,1.0123e-08
8.2000e+02,1.0129e-08
8.3000e+02,1.0138e-08
8.4000e+02,1.0145e-08
8.5000e+02,1.0145e-08
8.6000e+02,1.0142e-08
8.7000e+02,1.0138e-08
8.8000e+02,1.0135e-08
8.9000e+02,1.0130e-08
9.0000e+02,1.0122e-08
9.1000e+02,1.0117e-08
9.2000e+02,1.0121e-08
9.3000e+02,1.0128e-08
9.4000e+02,1.0132e-08
9.5000e+02,1.0129e-08
9.6000e+02,1.0123e-08
9.7000e+02,1.0123e-08
9.8000e+02,1.0130e-08
9.9000e+02,1.0132e-08
1.0000e+03,1.0124e-08
1.0100e+03,1.0107e-08
1.0200e+03,1.0092e-08
1.0300e+03,1.0091e-08
1.0400e+03,1.0092e-08
1.0500e+03,1.0086e-08
1.0600e+03,1.0078e-08
1.0700e+03,1.0071e-08
1.0800e+03,1.0072e-08
1.0900e+03,1.0087e-08
1.1000e+03,1.0107e-08
1.1100e+03,1.0116e-08
1.1200e+03,1.0112e-08
1.1300e+03,1.0105e-08
1.1400e+03,1.0100e-08
1.1500e+03,1.0097e-08
1.1600e+03,1.0095e-08
1.1700e+03,1.0096e-08
1.1800e+03,1.0099e-08
1.1900e+03,1.0098e-08
1.2000e+03,1.0094e-08
1.2100e+03,1.0091e-08
1.2200e+03,1.0088e-08
1.2300e+03,1.0089e-08
1.2400e+03,1.0092e-08
1.2500e+03,1.0099e-08
1.2600e+03,1.0104e-08
1.2700e+03,1.0104e-08
1.2800e+03,1.0101e-08
1.2900e+03,1.0098e-08
1.3000e+03,1.0093e-08
1.3100e+03,1.0088e-08
1.3200e+03,1.0087e-08
1.3300e+03,1.0090e-08
1.3400e+03,1.0092e-08
1.3500e+03,1.0096e-08
1.3600e+03,1.0101e-08
1.3700e+03,1.0107e-08
1.3800e+03,1.0112e-08
1.3900e+03,1.0114e-08
1.4000e+03,1.0111e-08
1.4100e+03,1.0105e-08
1.4200e+03,1.0101e-08
1.4300e+03,1.0099e-08
1.4400e+03,1.0098e-08
1.4500e+03,1.0098e-08
1.4600e+03,1.0098e-08
1.4700e+03,1.0098e-08
1.4800e+03,1.0098e-08
1.4900e+03,1.0098e-08
1.5000e+03,1.0098e-08
1.5100e+03,1.0098e-08
1.5200e+03,1.0098e-08
1.5300e+03,1.0098e-08
1.5400e+03,1.0098e-08
1.5500e+03,1.0098e-08
1.5600e+03,1.0098e-08
1.5700e+03,1.0098e-08
1.5800e+03,1.0097e-08
1.5900e+03,1.0095e-08
1.6000e+03,1.0094e-08
1.6100e+03,1.0094e-08
1.6200e+03,1.0092e-08
1.6300e+03,1.0091e-08
1.6400e+03,1.0093e-08
1.6500e+03,1.0099e-08
1.6600e+03,1.0103e-08
1.6700e+03,1.0102e-08
1.6800e+03,1.0096e-08
1.6900e+03,1.0090e-08
1.7000e+03,1.0086e-08
1.7100e+03,1.0087e-08
1.7200e+03,1.0086e-08
1.7300e+03,1.0085e-08
1.7400e+03,1.0088e-08
1.7500e+03,1.0096e-08
1.7600e+03,1.0101e-08
1.7700e+03,1.0100e-08
1.7800e+03,1.0096e-08
1.7900e+03,1.0092e-08
1.8000e+03,1.0088e-08
1.8100e+03,1.0085e-08
1.8200e+03,1.0083e-08
1.8300e+03,1.0082e-08
1.8400e+03,1.0084e-08
1.8500e+03,1.0090e-08
1.8600e+03,1.0096e-08
1.8700e+03,1.0096e-08
1.8800e+03,1.0091e-08
1.8900e+03,1.0087e-08
1.9000e+03,1.0088e-08
1.9100e+03,1.0092e-08
1.9200e+03,1.0093e-08
1.9300e+03,1.0091e-08
1.9400e+03,1.0092e-08
1.9500e+03,1.0096e-08
1.9600e+03,1.0097e-08
1.9700e+03,1.0095e-08
1.9800e+03,1.0091e-08
1.9900e+03,1.0085e-08
2.0000e+03,1.0082e-08
2.0100e+03,1.0084e-08
2.0200e+03,1.0093e-08
2.0300e+03,1.0097e-08
2.0400e+03,1.0088e-08
2.0500e+03,1.0079e-08
2.0600e+03,1.0084e-08
2.0700e+03,1.0091e-08
2.0800e+03,1.0089e-08
2.0900e+03,1.0080e-08
2.1000e+03,1.0077e-08
2.1100e+03,1.0082e-08
2.1200e+03,1.0085e-08
2.1300e+03,1.0077e-08
2.1400e+03,1.0063e-08
2.1500e+03,1.0056e-08
2.1600e+03,1.0061e-08
2.1700e+03,1.0071e-08
2.1800e+03,1.0079e-08
2.1900e+03,1.0086e-08
2.2000e+03,1.0092e-08
2.2100e+03,1.0092e-08
2.2200e+03,1.0092e-08
2.2300e+03,1.0094e-08
2.2400e+03,1.0092e-08
2.2500e+03,1.0084e-08
2.2600e+03,1.0077e-08
2.2700e+03,1.0076e-08
2.2800e+03,1.0078e-08
2.2900e+03,1.0079e-08
2.3000e+03,1.0077e-08
2.3100e+03,1.0075e-08
2.3200e+03,1.0075e-08
2.3300e+03,1.0076e-08
2.3400e+03,1.0079e-08
2.3500e+03,1.0082e-08
2.3600e+03,1.0081e-08
2.3700e+03,1.0078e-08
2.3800e+03,1.0077e-08
2.3900e+03,1.0082e-08
2.4000e+03,1.0089e-08
2.4100e+03,1.0094e-08
2.4200e+03,1.0093e-08
2.4300e+03,1.0086e-08
2.4400e+03,1.0077e-08
2.4500e+03,1.0069e-08
2.4600e+03,1.0064e-08
2.4700e+03,1.0061e-08
2.4800e+03,1.0061e-08
2.4900e+03,1.0067e-08
2.5000e+03,1.0074e-08
2.5100e+03,1.0079e-08
2.5200e+03,1.0078e-08
2.5300e+03,1.0076e-08
2.5400e+03,1.0075e-08
2.5500e+03,1.0074e-08
2.5600e+03,1.0074e-08
2.5700e+03,1.0073e-08
2.5800e+03,1.0074e-08
2.5900e+03,1.0074e-08
2.6000e+03,1.0075e-08
2.6100e+03,1.0075e-08
2.6200e+03,1.0074e-08
2.6300e+03,1.0072e-08
2.6400e+03,1.0069e-08
2.6500e+03,1.0066e-08
2.6600e+03,1.0066e-08
2.6700e+03,1.0076e-08
2.6800e+03,1.0094e-08
2.6900e+03,1.0110e-08
2.7000e+03,1.0114e-08
2.7100e+03,1.0102e-08
2.7200e+03,1.0079e-08
2.7300e+03,1.0057e-08
2.7400e+03,1.0043e-08
2.7500e+03,1.0036e-08
2.7600e+03,1.0033e-08
2.7700e+03,1.0030e-08
2.7800e+03,1.0026e-08
2.7900e+03,1.0022e-08
2.8000e+03,1.0021e-08
2.8100e+03,1.0020e-08
2.8200e+03,1.0021e-08
2.8300e+03,1.0023e-08
2.8400e+03,1.0028e-08
2.8500e+03,1.0032e-08
2.8600e+03,1.0031e-08
2.8700e+03,1.0023e-08
2.8800e+03,1.0004e-08
2.8900e+03,9.9777e-09
2.9000e+03,9.9534e-09
2.9100e+03,9.9400e-09
2.9200e+03,9.9407e-09
2.9300e+03,9.9556e-09
2.9400e+03,9.9799e-09
2.9500e+03,1.0006e-08
2.9600e+03,1.0030e-08
2.9700e+03,1.0049e-08
2.9800e+03,1.0061e-08
2.9900e+03,1.0059e-08
3.0000e+03,1.0043e-08
3.0100e+03,1.0021e-08
3.0200e+03,1.0002e-08
3.0300e+03,9.9885e-09
3.0400e+03,9.9827e-09
3.0500e+03,9.9888e-09
3.0600e+03,1.0009e-08
3.0700e+03,1.0039e-08
3.0800e+03,1.0068e-08
3.0900e+03,1.0078e-08
3.1000e+03,1.0063e-08
3.1100e+03,1.0018e-08
3.1200e+03,9.9456e-09
3.1300e+03,9.8620e-09
3.1400e+03,9.7853e-09
3.1500e+03,9.7239e-09
3.1600e+03,9.6793e-09
3.1700e+03,9.6470e-09
3.1800e+03,9.6243e-09
3.1900e+03,9.6114e-09
3.2000e+03,9.6067e-09
3.2100e+03,9.6101e-09
3.2200e+03,9.6208e-09
3.2300e+03,9.6347e-09
3.2400e+03,9.6445e-09
3.2500e+03,9.6437e-09
3.2600e+03,9.6314e-09
3.2700e+03,9.6111e-09
3.2800e+03,9.5871e-09
3.2900e+03,9.5602e-09
3.3000e+03,9.5277e-09
3.3100e+03,9.4937e-09
3.3200e+03,9.4674e-09
3.3300e+03,9.4515e-09
3.3400e+03,9.4420e-09
3.3500e+03,9.4370e-09
3.3600e+03,9.4371e-09
3.3700e+03,9.4429e-09
3.3800e+03,9.4538e-09
3.3900e+03,9.4689e-09
3.4000e+03,9.4862e-09
3.4100e+03,9.5049e-09
3.4200e+03,9.5275e-09
3.4300e+03,9.5575e-09
3.4400e+03,9.5920e-09
3.4500e+03,9.6236e-09
3.4600e+03,9.6488e-09
3.4700e+03,9.6700e-09
3.4800e+03,9.6904e-09
3.4900e+03,9.7121e-09
3.5000e+03,9.7353e-09
3.5100e+03,9.7529e-09
3.5200e+03,9.7574e-09
3.5300e+03,9.7523e-09
3.5400e+03,9.7455e-09
3.5500e+03,9.7410e-09
3.5600e+03,9.7386e-09
3.5700e+03,9.7378e-09
3.5800e+03,9.7377e-09
3.5900e+03,9.7378e-09
3.6000e+03,9.7378e-09
3.6100e+03,9.7379e-09
3.6200e+03,9.7377e-09
3.6300e+03,9.7370e-09
3.6400e+03,9.7360e-09
3.6500e+03,9.7362e-09
3.6600e+03,9.7400e-09
3.6700e+03,9.7464e-09
3.6800e+03,9.7515e-09
3.6900e+03,9.7515e-09
3.7000e+03,9.7447e-09
3.7100e+03,9.7339e-09
3.7200e+03,9.7251e-09
3.7300e+03,9.7209e-09
3.7400e+03,9.7252e-09
3.7500e+03,9.7446e-09
3.7600e+03,9.7777e-09
3.7700e+03,9.8136e-09
3.7800e+03,9.8446e-09
3.7900e+03,9.8653e-09
3.8000e+03,9.8751e-09
3.8100e+03,9.8833e-09
3.8200e+03,9.8946e-09
3.8300e+03,9.9025e-09
3.8400e+03,9.9009e-09
3.8500e+03,9.8922e-09
3.8600e+03,9.8817e-09
3.8700e+03,9.8683e-09
3.8800e+03,9.8473e-09
3.8900e+03,9.8212e-09
3.9000e+03,9.7944e-09
3.9100e+03,9.7640e-09
3.9200e+03,9.7302e-09
3.9300e+03,9.7045e-09
3.9400e+03,9.6927e-09
3.9500e+03,9.6885e-09
3.9600e+03,9.6890e-09
3.9700e+03,9.6969e-09
3.9800e+03,9.7154e-09
3.9900e+03,9.7464e-09
4.0000e+03,9.7883e-09
4.0100e+03,9.8411e-09
4.0200e+03,9.9060e-09
4.0300e+03,9.9832e-09
4.0400e+03,1.0075e-08
4.0500e+03,1.0175e-08
4.0600e+03,1.0277e-08
4.0700e+03,1.0388e-08
4.0800e+03,1.0521e-08
4.0900e+03,1.0683e-08
4.1000e+03,1.0865e-08
4.1100e+03,1.1040e-08
4.1200e+03,1.1188e-08
4.1300e+03,1.1307e-08
4.1400e+03,1.1402e-08
4.1500e+03,1.1478e-08
4.1600e+03,1.1531e-08
4.1700e+03,1.1558e-08
4.1800e+03,1.1558e-08
4.1900e+03,1.1541e-08
4.2000e+03,1.1517e-08
4.2100e+03,1.1497e-08
4.2200e+03,1.1486e-08
4.2300e+03,1.1482e-08
4.2400e+03,1.1482e-08
4.2500e+03,1.1482e-08
4.2600e+03,1.1482e-08
4.2700e+03,1.1481e-08
4.2800e+03,1.1480e-08
4.2900e+03,1.1479e-08
4.3000e+03,1.1478e-08
4.3100e+03,1.1479e-08
4.3200e+03,1.1481e-08
4.3300e+03,1.1483e-08
4.3400e+03,1.1485e-08
4.3500e+03,1.1486e-08
4.3600e+03,1.1487e-08
4.3700e+03,1.1488e-08
4.3800e+03,1.1489e-08
4.3900e+03,1.1490e-08
4.4000e+03,1.1489e-08
4.4100e+03,1.1488e-08
4.4200e+03,1.1485e-08
4.4300e+03,1.1483e-08
4.4400e+03,1.1480e-08
4.4500e+03,1.1479e-08
4.4600e+03,1.1477e-08
4.4700e+03,1.1475e-08
4.4800e+03,1.1473e-08
4.4900e+03,1.1471e-08
4.5000e+03,1.1469e-08
4.5100e+03,1.1470e-08
4.5200e+03,1.1470e-08
4.5300e+03,1.1470e-08
4.5400e+03,1.1470e-08
4.5500e+03,1.1470e-08
4.5600e+03,1.1472e-08
4.5700e+03,1.1475e-08
4.5800e+03,1.1478e-08
4.5900e+03,1.1479e-08
4.6000e+03,1.1479e-08
4.6100e+03,1.1479e-08
4.6200e+03,1.1479e-08
4.6300e+03,1.1479e-08
4.6400e+03,1.1479e-08
4.6500e+03,1.1478e-08
4.6600e+03,1.1475e-08
4.6700e+03,1.1471e-08
4.6800e+03,1.1464e-08
4.6900e+03,1.1454e-08
4.7000e+03,1.1441e-08
4.7100e+03,1.1424e-08
4.7200e+03,1.1400e-08
4.7300e+03,1.1366e-08
4.7400e+03,1.1322e-08
4.7500e+03,1.1275e-08
4.7600e+03,1.1228e-08
4.7700e+03,1.1186e-08
4.7800e+03,1.1147e-08
4.7900e+03,1.1102e-08
4.8000e+03,1.1044e-08
4.8100e+03,1.0983e-08
4.8200e+03,1.0929e-08
4.8300e+03,1.0882e-08
4.8400e+03,1.0848e-08
4.8500e+03,1.0833e-08
4.8600e+03,1.0826e-08
4.8700e+03,1.0817e-08
4.8800e+03,1.0805e-08
4.8900e+03,1.0794e-08
4.9000e+03,1.0788e-08
4.9100e+03,1.0791e-08
4.9200e+03,1.0808e-08
4.9300e+03,1.0834e-08
4.9400e+03,1.0852e-08
4.9500e+03,1.0852e-08
4.9600e+03,1.0847e-08
4.9700e+03,1.0853e-08
4.9800e+03,1.0876e-08
4.9900e+03,1.0916e-08
5.0000e+03,1.0966e-08
5.0100e+03,1.1013e-08
5.0200e+03,1.1050e-08
5.0300e+03,1.1079e-08
5.0400e+03,1.1102e-08
5.0500e+03,1.1116e-08
5.0600e+03,1.1118e-08
5.0700e+03,1.1106e-08
5.0800e+03,1.1077e-08
5.0900e+03,1.1039e-08
5.1000e+03,1.1017e-08
5.1100e+03,1.1038e-08
5.1200e+03,1.1093e-08
5.1300e+03,1.1158e-08
5.1400e+03,1.1215e-08
5.1500e+03,1.1257e-08
5.1600e+03,1.1285e-08
5.1700e+03,1.1302e-08
5.1800e+03,1.1315e-08
5.1900e+03,1.1327e-08
5.2000e+03,1.1329e-08
5.2100e+03,1.1312e-08
5.2200e+03,1.1280e-08
5.2300e+03,1.1242e-08
5.2400e+03,1.1211e-08
5.2500e+03,1.1193e-08
5.2600e+03,1.1184e-08
5.2700e+03,1.1172e-08
5.2800e+03,1.1158e-08
5.2900e+03,1.1141e-08
5.3000e+03,1.1121e-08
5.3100e+03,1.1098e-08
5.3200e+03,1.1074e-08
5.3300e+03,1.1050e-08
5.3400e+03,1.1025e-08
5.3500e+03,1.0999e-08
5.3600e+03,1.0977e-08
5.3700e+03,1.0965e-08
5.3800e+03,1.0960e-08
5.3900e+03,1.0958e-08
5.4000e+03,1.0958e-08
5.4100e+03,1.0957e-08
5.4200e+03,1.0953e-08
5.4300e+03,1.0943e-08
5.4400e+03,1.0922e-08
5.4500e+03,1.0888e-08
5.4600e+03,1.0846e-08
5.4700e+03,1.0817e-08
5.4800e+03,1.0817e-08
5.4900e+03,1.0832e-08
5.5000e+03,1.0846e-08
5.5100e+03,1.0857e-08
5.5200e+03,1.0864e-08
5.5300e+03,1.0867e-08
5.5400e+03,1.0864e-08
5.5500e+03,1.0855e-08
5.5600e+03,1.0845e-08
5.5700e+03,1.0838e-08
5.5800e+03,1.0833e-08
5.5900e+03,1.0832e-08
5.6000e+03,1.0831e-08
5.6100e+03,1.0829e-08
5.6200e+03,1.0828e-08
5.6300e+03,1.0828e-08
5.6400e+03,1.0828e-08
5.6500e+03,1.0828e-08
5.6600e+03,1.0829e-08
5.6700e+03,1.0829e-08
5.6800e+03,1.0828e-08
5.6900e+03,1.0828e-08
5.7000e+03,1.0828e-08
5.7100e+03,1.0829e-08
5.7200e+03,1.0829e-08
5.7300e+03,1.0830e-08
5.7400e+03,1.0830e-08
5.7500e+03,1.0829e-08
5.7600e+03,1.0823e-08
5.7700e+03,1.0810e-08
5.7800e+03,1.0794e-08
5.7900e+03,1.0776e-08
5.8000e+03,1.0756e-08
5.8100e+03,1.0738e-08
5.8200e+03,1.0727e-08
5.8300e+03,1.0730e-08
5.8400e+03,1.0746e-08
5.8500e+03,1.0759e-08
5.8600e+03,1.0755e-08
5.8700e+03,1.0736e-08
5.8800e+03,1.0714e-08
5.8900e+03,1.0697e-08
5.9000e+03,1.0688e-08
5.9100e+03,1.0684e-08
5.9200e+03,1.0681e-08
5.9300e+03,1.0679e-08
5.9400e+03,1.0678e-08
5.9500e+03,1.0681e-08
5.9600e+03,1.0685e-08
5.9700e+03,1.0691e-08
5.9800e+03,1.0697e-08
5.9900e+03,1.0706e-08
6.0000e+03,1.0716e-08
6.0100e+03,1.0725e-08
6.0200e+03,1.0734e-08
6.0300e+03,1.0736e-08
6.0400e+03,1.0726e-08
6.0500e+03,1.0701e-08
6.0600e+03,1.0661e-08
6.0700e+03,1.0604e-08
6.0800e+03,1.0527e-08
6.0900e+03,1.0437e-08
6.1000e+03,1.0343e-08
6.1100e+03,1.0253e-08
6.1200e+03,1.0175e-08
6.1300e+03,1.0119e-08
6.1400e+03,1.0090e-08
6.1500e+03,1.0077e-08
6.1600e+03,1.0064e-08
6.1700e+03,1.0037e-08
6.1800e+03,9.9765e-09
6.1900e+03,9.8858e-09
6.2000e+03,9.7765e-09
6.2100e+03,9.6509e-09
6.2200e+03,9.5169e-09
6.2300e+03,9.3948e-09
6.2400e+03,9.3002e-09
6.2500e+03,9.2326e-09
6.2600e+03,9.1848e-09
6.2700e+03,9.1484e-09
6.2800e+03,9.1214e-09
6.2900e+03,9.1071e-09
6.3000e+03,9.1070e-09
6.3100e+03,9.1192e-09
6.3200e+03,9.1408e-09
6.3300e+03,9.1684e-09
6.3400e+03,9.1978e-09
6.3500e+03,9.2265e-09
6.3600e+03,9.2527e-09
6.3700e+03,9.2739e-09
6.3800e+03,9.2863e-09
6.3900e+03,9.2894e-09
6.4000e+03,9.2881e-09
6.4100e+03,9.2877e-09
6.4200e+03,9.2886e-09
6.4300e+03,9.2896e-09
6.4400e+03,9.2900e-09
6.4500e+03,9.2916e-09
6.4600e+03,9.2995e-09
6.4700e+03,9.3175e-09
6.4800e+03,9.3429e-09
6.4900e+03,9.3671e-09
6.5000e+03,9.3843e-09
6.5100e+03,9.3961e-09
6.5200e+03,9.4052e-09
6.5300e+03,9.4069e-09
6.5400e+03,9.3965e-09
6.5500e+03,9.3814e-09
6.5600e+03,9.3773e-09
6.5700e+03,9.3948e-09
6.5800e+03,9.4252e-09
6.5900e+03,9.4513e-09
6.6000e+03,9.4679e-09
6.6100e+03,9.4774e-09
6.6200e+03,9.4826e-09
6.6300e+03,9.4858e-09
6.6400e+03,9.4874e-09
6.6500e+03,9.4879e-09
6.6600e+03,9.4877e-09
6.6700e+03,9.4872e-09
6.6800e+03,9.4869e-09
6.6900e+03,9.4867e-09
6.7000e+03,9.4864e-09
6.7100e+03,9.4861e-09
6.7200e+03,9.4856e-09
6.7300e+03,9.4859e-09
6.7400e+03,9.4885e-09
6.7500e+03,9.4952e-09
6.7600e+03,9.5045e-09
6.7700e+03,9.5113e-09
6.7800e+03,9.5101e-09
6.7900e+03,9.4996e-09
6.8000e+03,9.4802e-09
6.8100e+03,9.4532e-09
6.8200e+03,9.4206e-09
6.8300e+03,9.3866e-09
6.8400e+03,9.3597e-09
6.8500e+03,9.3490e-09
6.8600e+03,9.3517e-09
6.8700e+03,9.3572e-09
6.8800e+03,9.3606e-09
6.8900e+03,9.3669e-09
6.9000e+03,9.3831e-09
6.9100e+03,9.4086e-09
6.9200e+03,9.4348e-09
6.9300e+03,9.4555e-09
6.9400e+03,9.4705e-09
6.9500e+03,9.4802e-09
6.9600e+03,9.4873e-09
6.9700e+03,9.4991e-09
6.9800e+03,9.5224e-09
6.9900e+03,9.5577e-09
7.0000e+03,9.5986e-09
7.0100e+03,9.6314e-09
7.0200e+03,9.6453e-09
7.0300e+03,9.6427e-09
7.0400e+03,9.6329e-09
7.0500e+03,9.6236e-09
7.0600e+03,9.6154e-09
7.0700e+03,9.6072e-09
7.0800e+03,9.6050e-09
7.0900e+03,9.6193e-09
7.1000e+03,9.6609e-09
7.1100e+03,9.7385e-09
7.1200e+03,9.8495e-09
7.1300e+03,9.9660e-09
7.1400e+03,1.0057e-08
7.1500e+03,1.0121e-08
7.1600e+03,1.0183e-08
7.1700e+03,1.0274e-08
7.1800e+03,1.0387e-08
7.1900e+03,1.0491e-08
7.2000e+03,1.0553e-08
7.2100e+03,1.0549e-08
7.2200e+03,1.0492e-08
7.2300e+03,1.0409e-08
7.2400e+03,1.0325e-08
7.2500e+03,1.0260e-08
7.2600e+03,1.0226e-08
7.2700e+03,1.0212e-08
7.2800e+03,1.0210e-08
7.2900e+03,1.0211e-08
7.3000e+03,1.0212e-08
7.3100e+03,1.0210e-08
7.3200e+03,1.0208e-08
7.3300e+03,1.0204e-08
7.3400e+03,1.0200e-08
7.3500e+03,1.0196e-08
7.3600e+03,1.0192e-08
7.3700e+03,1.0189e-08
7.3800e+03,1.0189e-08
7.3900e+03,1.0196e-08
7.4000e+03,1.0213e-08
7.4100e+03,1.0239e-08
7.4200e+03,1.0272e-08
7.4300e+03,1.0304e-08
7.4400e+03,1.0328e-08
7.4500e+03,1.0344e-08
7.4600e+03,1.0358e-08
7.4700e+03,1.0367e-08
7.4800e+03,1.0367e-08
7.4900e+03,1.0365e-08
7.5000e+03,1.0375e-08
7.5100e+03,1.0398e-08
7.5200e+03,1.0422e-08
7.5300e+03,1.0438e-08
7.5400e+03,1.0443e-08
7.5500e+03,1.0441e-08
7.5600e+03,1.0436e-08
7.5700e+03,1.0433e-08
7.5800e+03,1.0431e-08
7.5900e+03,1.0428e-08
7.6000e+03,1.0424e-08
7.6100e+03,1.0423e-08
7.6200e+03,1.0425e-08
7.6300e+03,1.0427e-08
7.6400e+03,1.0428e-08
7.6500e+03,1.0427e-08
7.6600e+03,1.0423e-08
7.6700e+03,1.0419e-08
7.6800e+03,1.0417e-08
7.6900e+03,1.0415e-08
7.7000e+03,1.0415e-08
7.7100e+03,1.0414e-08
7.7200e+03,1.0414e-08
7.7300e+03,1.0413e-08
7.7400e+03,1.0413e-08
7.7500e+03,1.0414e-08
7.7600e+03,1.0413e-08
7.7700e+03,1.0410e-08
7.7800e+03,1.0410e-08
7.7900e+03,1.0418e-08
7.8000e+03,1.0435e-08
7.8100e+03,1.0459e-08
7.8200e+03,1.0489e-08
7.8300e+03,1.0526e-08
7.8400e+03,1.0566e-08
7.8500e+03,1.0605e-08
7.8600e+03,1.0638e-08
7.8700e+03,1.0662e-08
7.8800e+03,1.0679e-08
7.8900e+03,1.0692e-08
7.9000e+03,1.0698e-08
7.9100e+03,1.0698e-08
7.9200e+03,1.0693e-08
7.9300e+03,1.0687e-08
7.9400e+03,1.0682e-08
7.9500e+03,1.0681e-08
7.9600e+03,1.0683e-08
7.9700e+03,1.0682e-08
7.9800e+03,1.0677e-08
7.9900e+03,1.0668e-08
8.0000e+03,1.0660e-08
8.0100e+03,1.0649e-08
8.0200e+03,1.0636e-08
8.0300e+03,1.0623e-08
8.0400e+03,1.0608e-08
8.0500e+03,1.0590e-08
8.0600e+03,1.0572e-08
8.0700e+03,1.0557e-08
8.0800e+03,1.0544e-08
8.0900e+03,1.0530e-08
8.1000e+03,1.0512e-08
8.1100e+03,1.0483e-08
8.1200e+03,1.0442e-08
8.1300e+03,1.0390e-08
8.1400e+03,1.0337e-08
8.1500e+03,1.0292e-08
8.1600e+03,1.0258e-08
8.1700e+03,1.0236e-08
8.1800e+03,1.0230e-08
8.1900e+03,1.0246e-08
8.2000e+03,1.0294e-08
8.2100e+03,1.0367e-08
8.2200e+03,1.0441e-08
8.2300e+03,1.0490e-08
8.2400e+03,1.0509e-08
8.2500e+03,1.0501e-08
8.2600e+03,1.0465e-08
8.2700e+03,1.0404e-08
8.2800e+03,1.0327e-08
8.2900e+03,1.0243e-08
8.3000e+03,1.0162e-08
8.3100e+03,1.0093e-08
8.3200e+03,1.0045e-08
8.3300e+03,1.0018e-08
8.3400e+03,1.0008e-08
8.3500e+03,1.0011e-08
8.3600e+03,1.0020e-08
8.3700e+03,1.0029e-08
8.3800e+03,1.0034e-08
8.3900e+03,1.0035e-08
8.4000e+03,1.0035e-08
8.4100e+03,1.0036e-08
8.4200e+03,1.0037e-08
8.4300e+03,1.0039e-08
8.4400e+03,1.0040e-08
8.4500e+03,1.0040e-08
8.4600e+03,1.0040e-08
8.4700e+03,1.0040e-08
8.4800e+03,1.0040e-08
8.4900e+03,1.0040e-08
8.5000e+03,1.0039e-08
8.5100e+03,1.0036e-08
8.5200e+03,1.0031e-08
8.5300e+03,1.0024e-08
8.5400e+03,1.0019e-08
8.5500e+03,1.0017e-08
8.5600e+03,1.0018e-08
8.5700e+03,1.0026e-08
8.5800e+03,1.0042e-08
8.5900e+03,1.0064e-08
8.6000e+03,1.0086e-08
8.6100e+03,1.0100e-08
8.6200e+03,1.0104e-08
8.6300e+03,1.0104e-08
8.6400e+03,1.0104e-08
8.6500e+03,1.0106e-08
8.6600e+03,1.0107e-08
8.6700e+03,1.0107e-08
8.6800e+03,1.0105e-08
8.6900e+03,1.0105e-08
8.7000e+03,1.0104e-08
8.7100e+03,1.0103e-08
8.7200e+03,1.0102e-08
8.7300e+03,1.0102e-08
8.7400e+03,1.0102e-08
8.7500e+03,1.0102e-08
8.7600e+03,1.0101e-08
8.7700e+03,1.0099e-08
8.7800e+03,1.0096e-08
8.7900e+03,1.0094e-08
8.8000e+03,1.0091e-08
8.8100e+03,1.0089e-08
8.8200e+03,1.0085e-08
8.8300e+03,1.0076e-08
8.8400e+03,1.0063e-08
8.8500e+03,1.0051e-08
8.8600e+03,1.0048e-08
8.8700e+03,1.0053e-08
8.8800e+03,1.0063e-08
8.8900e+03,1.0071e-08
8.9000e+03,1.0077e-08
8.9100e+03,1.0080e-08
8.9200e+03,1.0080e-08
8.9300e+03,1.0074e-08
8.9400e+03,1.0066e-08
8.9500e+03,1.0057e-08
8.9600e+03,1.0051e-08
8.9700e+03,1.0048e-08
8.9800e+03,1.0046e-08
8.9900e+03,1.0043e-08
9.0000e+03,1.0040e-08
9.0100e+03,1.0039e-08
9.0200e+03,1.0038e-08
9.0300e+03,1.0037e-08
9.0400e+03,1.0036e-08
9.0500e+03,1.0037e-08
9.0600e+03,1.0040e-08
9.0700e+03,1.0048e-08
