# Time , Side-Flux
0.0000e+00,0.0000e+00
1.0000e+01,3.3530e-13
2.0000e+01,6.6972e-13
3.0000e+01,1.0024e-12
4.0000e+01,1.3325e-12
5.0000e+01,1.6591e-12
6.0000e+01,1.9816e-12
7.0000e+01,2.2992e-12
8.0000e+01,2.6112e-12
9.0000e+01,2.9169e-12
1.0000e+02,3.2159e-12
1.1000e+02,3.5076e-12
1.2000e+02,3.7917e-12
1.3000e+02,4.0677e-12
1.4000e+02,4.3354e-12
1.5000e+02,4.5945e-12
1.6000e+02,4.8449e-12
1.7000e+02,5.0866e-12
1.8000e+02,5.3193e-12
1.9000e+02,5.5432e-12
2.0000e+02,5.7584e-12
2.1000e+02,5.9648e-12
2.2000e+02,6.1626e-12
2.3000e+02,6.3520e-12
2.4000e+02,6.5332e-12
2.5000e+02,6.7064e-12
2.6000e+02,6.8718e-12
2.7000e+02,7.0296e-12
2.8000e+02,7.1801e-12
2.9000e+02,7.3237e-12
3.0000e+02,7.4604e-12
3.1000e+02,7.5907e-12
3.2000e+02,7.7148e-12
3.3000e+02,7.8330e-12
3.4000e+02,7.9455e-12
3.5000e+02,8.0527e-12
3.6000e+02,8.1547e-12
3.7000e+02,8.2519e-12
3.8000e+02,8.3445e-12
3.9000e+02,8.4327e-12
4.0000e+02,8.5169e-12
4.1000e+02,8.5971e-12
4.2000e+02,8.6737e-12
4.3000e+02,8.7468e-12
4.4000e+02,8.8167e-12
4.5000e+02,8.8835e-12
4.6000e+02,8.9475e-12
4.7000e+02,9.0088e-12
4.8000e+02,9.0676e-12
4.9000e+02,9.1240e-12
5.0000e+02,9.1782e-12
5.1000e+02,9.2303e-12
5.2000e+02,9.2805e-12
5.3000e+02,9.3289e-12
5.4000e+02,9.3756e-12
5.5000e+02,9.4207e-12
5.6000e+02,9.4643e-12
5.7000e+02,9.5065e-12
5.8000e+02,9.5474e-12
5.9000e+02,9.5871e-12
6.0000e+02,9.6257e-12
6.1000e+02,9.6631e-12
6.2000e+02,9.6996e-12
6.3000e+02,9.7350e-12
6.4000e+02,9.7696e-12
6.5000e+02,9.8033e-12
6.6000e+02,9.8361e-12
6.7000e+02,9.8682e-12
6.8000e+02,9.8994e-12
6.9000e+02,9.9299e-12
7.0000e+02,9.9597e-12
7.1000e+02,9.9887e-12
7.2000e+02,1.0017e-11
7.3000e+02,1.0045e-11
7.4000e+02,1.0072e-11
7.5000e+02,1.0098e-11
7.6000e+02,1.0123e-11
7.7000e+02,1.0148e-11
7.8000e+02,1.0172e-11
7.9000e+02,1.0195e-11
8.0000e+02,1.0218e-11
8.1000e+02,1.0240e-11
8.2000e+02,1.0261e-11
8.3000e+02,1.0282e-11
8.4000e+02,1.0302e-11
8.5000e+02,1.0321e-11
8.6000e+02,1.0340e-11
8.7000e+02,1.0359e-11
8.8000e+02,1.0376e-11
8.9000e+02,1.0394e-11
9.0000e+02,1.0411e-11
9.1000e+02,1.0428e-11
9.2000e+02,1.0445e-11
9.3000e+02,1.0461e-11
9.4000e+02,1.0478e-11
9.5000e+02,1.0494e-11
9.6000e+02,1.0511e-11
9.7000e+02,1.0527e-11
9.8000e+02,1.0544e-11
9.9000e+02,1.0562e-11
1.0000e+03,1.0579e-11
1.0100e+03,1.0597e-11
1.0200e+03,1.0615e-11
1.0300e+03,1.0634e-11
1.0400e+03,1.0653e-11
1.0500e+03,1.0673e-11
1.0600e+03,1.0693e-11
1.0700e+03,1.0714e-11
1.0800e+03,1.0735e-11
1.0900e+03,1.0756e-11
1.1000e+03,1.0778e-11
1.1100e+03,1.0799e-11
1.1200e+03,1.0822e-11
1.1300e+03,1.0844e-11
1.1400e+03,1.0866e-11
1.1500e+03,1.0889e-11
1.1600e+03,1.0911e-11
1.1700e+03,1.0933e-11
1.1800e+03,1.0955e-11
1.1900e+03,1.0977e-11
1.2000e+03,1.0998e-11
1.2100e+03,1.1019e-11
1.2200e+03,1.1039e-11
1.2300e+03,1.1059e-11
1.2400e+03,1.1078e-11
1.2500e+03,1.1096e-11
1.2600e+03,1.1114e-11
1.2700e+03,1.1130e-11
1.2800e+03,1.1146e-11
1.2900e+03,1.1161e-11
1.3000e+03,1.1175e-11
1.3100e+03,1.1188e-11
1.3200e+03,1.1200e-11
1.3300e+03,1.1211e-11
1.3400e+03,1.1220e-11
1.3500e+03,1.1229e-11
1.3600e+03,1.1237e-11
1.3700e+03,1.1244e-11
1.3800e+03,1.1250e-11
1.3900e+03,1.1255e-11
1.4000e+03,1.1259e-11
1.4100e+03,1.1262e-11
1.4200e+03,1.1265e-11
1.4300e+03,1.1266e-11
1.4400e+03,1.1266e-11
1.4500e+03,1.1266e-11
1.4600e+03,1.1265e-11
1.4700e+03,1.1263e-11
1.4800e+03,1.1260e-11
1.4900e+03,1.1257e-11
1.5000e+03,1.1253e-11
1.5100e+03,1.1248e-11
1.5200e+03,1.1243e-11
1.5300e+03,1.1237e-11
1.5400e+03,1.1231e-11
1.5500e+03,1.1224e-11
1.5600e+03,1.1216e-11
1.5700e+03,1.1208e-11
1.5800e+03,1.1199e-11
1.5900e+03,1.1190e-11
1.6000e+03,1.1181e-11
1.6100e+03,1.1171e-11
1.6200e+03,1.1161e-11
1.6300e+03,1.1151e-11
1.6400e+03,1.1140e-11
1.6500e+03,1.1129e-11
1.6600e+03,1.1118e-11
1.6700e+03,1.1107e-11
1.6800e+03,1.1095e-11
1.6900e+03,1.1083e-11
1.7000e+03,1.1072e-11
1.7100e+03,1.1060e-11
1.7200e+03,1.1048e-11
1.7300e+03,1.1036e-11
1.7400e+03,1.1024e-11
1.7500e+03,1.1012e-11
1.7600e+03,1.1000e-11
1.7700e+03,1.0989e-11
1.7800e+03,1.0977e-11
1.7900e+03,1.0965e-11
1.8000e+03,1.0954e-11
1.8100e+03,1.0943e-11
1.8200e+03,1.0931e-11
1.8300e+03,1.0920e-11
1.8400e+03,1.0910e-11
1.8500e+03,1.0899e-11
1.8600e+03,1.0888e-11
1.8700e+03,1.0878e-11
1.8800e+03,1.0868e-11
1.8900e+03,1.0858e-11
1.9000e+03,1.0848e-11
1.9100e+03,1.0838e-11
1.9200e+03,1.0829e-11
1.9300e+03,1.0820e-11
1.9400e+03,1.0811e-11
1.9500e+03,1.0803e-11
1.9600e+03,1.0795e-11
1.9700e+03,1.0787e-11
1.9800e+03,1.0779e-11
1.9900e+03,1.0772e-11
2.0000e+03,1.0766e-11
2.0100e+03,1.0759e-11
2.0200e+03,1.0754e-11
2.0300e+03,1.0748e-11
2.0400e+03,1.0744e-11
2.0500e+03,1.0739e-11
2.0600e+03,1.0736e-11
2.0700e+03,1.0732e-11
2.0800e+03,1.0730e-11
2.0900e+03,1.0728e-11
2.1000e+03,1.0727e-11
2.1100e+03,1.0726e-11
2.1200e+03,1.0726e-11
2.1300e+03,1.0727e-11
2.1400e+03,1.0728e-11
2.1500e+03,1.0730e-11
2.1600e+03,1.0732e-11
2.1700e+03,1.0735e-11
2.1800e+03,1.0739e-11
2.1900e+03,1.0743e-11
2.2000e+03,1.0747e-11
2.2100e+03,1.0752e-11
2.2200e+03,1.0758e-11
2.2300e+03,1.0764e-11
2.2400e+03,1.0770e-11
2.2500e+03,1.0777e-11
2.2600e+03,1.0784e-11
2.2700e+03,1.0791e-11
2.2800e+03,1.0799e-11
2.2900e+03,1.0807e-11
2.3000e+03,1.0815e-11
2.3100e+03,1.0823e-11
2.3200e+03,1.0831e-11
2.3300e+03,1.0839e-11
2.3400e+03,1.0847e-11
2.3500e+03,1.0855e-11
2.3600e+03,1.0863e-11
2.3700e+03,1.0871e-11
2.3800e+03,1.0879e-11
2.3900e+03,1.0887e-11
2.4000e+03,1.0895e-11
2.4100e+03,1.0902e-11
2.4200e+03,1.0910e-11
2.4300e+03,1.0917e-11
2.4400e+03,1.0924e-11
2.4500e+03,1.0931e-11
2.4600e+03,1.0938e-11
2.4700e+03,1.0944e-11
2.4800e+03,1.0951e-11
2.4900e+03,1.0957e-11
2.5000e+03,1.0963e-11
2.5100e+03,1.0968e-11
2.5200e+03,1.0974e-11
2.5300e+03,1.0979e-11
2.5400e+03,1.0985e-11
2.5500e+03,1.0990e-11
2.5600e+03,1.0994e-11
2.5700e+03,1.0999e-11
2.5800e+03,1.1004e-11
2.5900e+03,1.1008e-11
2.6000e+03,1.1012e-11
2.6100e+03,1.1017e-11
2.6200e+03,1.1021e-11
2.6300e+03,1.1025e-11
2.6400e+03,1.1029e-11
2.6500e+03,1.1033e-11
2.6600e+03,1.1036e-11
2.6700e+03,1.1040e-11
2.6800e+03,1.1044e-11
2.6900e+03,1.1048e-11
2.7000e+03,1.1052e-11
2.7100e+03,1.1056e-11
2.7200e+03,1.1060e-11
2.7300e+03,1.1065e-11
2.7400e+03,1.1069e-11
2.7500e+03,1.1074e-11
2.7600e+03,1.1079e-11
2.7700e+03,1.1084e-11
2.7800e+03,1.1089e-11
2.7900e+03,1.1094e-11
2.8000e+03,1.1100e-11
2.8100e+03,1.1106e-11
2.8200e+03,1.1112e-11
2.8300e+03,1.1119e-11
2.8400e+03,1.1125e-11
2.8500e+03,1.1133e-11
2.8600e+03,1.1140e-11
2.8700e+03,1.1148e-11
2.8800e+03,1.1156e-11
2.8900e+03,1.1164e-11
2.9000e+03,1.1173e-11
2.9100e+03,1.1181e-11
2.9200e+03,1.1190e-11
2.9300e+03,1.1200e-11
2.9400e+03,1.1209e-11
2.9500e+03,1.1219e-11
2.9600e+03,1.1229e-11
2.9700e+03,1.1239e-11
2.9800e+03,1.1250e-11
2.9900e+03,1.1260e-11
3.0000e+03,1.1271e-11
3.0100e+03,1.1281e-11
3.0200e+03,1.1292e-11
3.0300e+03,1.1303e-11
3.0400e+03,1.1314e-11
3.0500e+03,1.1324e-11
3.0600e+03,1.1335e-11
3.0700e+03,1.1346e-11
3.0800e+03,1.1357e-11
3.0900e+03,1.1368e-11
3.1000e+03,1.1379e-11
3.1100e+03,1.1389e-11
3.1200e+03,1.1400e-11
3.1300e+03,1.1411e-11
3.1400e+03,1.1421e-11
3.1500e+03,1.1432e-11
3.1600e+03,1.1442e-11
3.1700e+03,1.1452e-11
3.1800e+03,1.1463e-11
3.1900e+03,1.1473e-11
3.2000e+03,1.1483e-11
3.2100e+03,1.1492e-11
3.2200e+03,1.1502e-11
3.2300e+03,1.1512e-11
3.2400e+03,1.1521e-11
3.2500e+03,1.1530e-11
3.2600e+03,1.1539e-11
3.2700e+03,1.1548e-11
3.2800e+03,1.1557e-11
3.2900e+03,1.1565e-11
3.3000e+03,1.1574e-11
3.3100e+03,1.1582e-11
3.3200e+03,1.1589e-11
3.3300e+03,1.1597e-11
3.3400e+03,1.1604e-11
3.3500e+03,1.1611e-11
3.3600e+03,1.1618e-11
3.3700e+03,1.1625e-11
3.3800e+03,1.1631e-11
3.3900e+03,1.1637e-11
3.4000e+03,1.1642e-11
3.4100e+03,1.1648e-11
3.4200e+03,1.1653e-11
3.4300e+03,1.1658e-11
3.4400e+03,1.1662e-11
3.4500e+03,1.1666e-11
3.4600e+03,1.1670e-11
3.4700e+03,1.1674e-11
3.4800e+03,1.1677e-11
3.4900e+03,1.1680e-11
3.5000e+03,1.1683e-11
3.5100e+03,1.1685e-11
3.5200e+03,1.1687e-11
3.5300e+03,1.1689e-11
3.5400e+03,1.1691e-11
3.5500e+03,1.1692e-11
3.5600e+03,1.1693e-11
3.5700e+03,1.1694e-11
3.5800e+03,1.1694e-11
3.5900e+03,1.1694e-11
3.6000e+03,1.1694e-11
3.6100e+03,1.1694e-11
3.6200e+03,1.1694e-11
3.6300e+03,1.1693e-11
3.6400e+03,1.1692e-11
3.6500e+03,1.1691e-11
3.6600e+03,1.1689e-11
3.6700e+03,1.1688e-11
3.6800e+03,1.1686e-11
3.6900e+03,1.1684e-11
3.7000e+03,1.1682e-11
3.7100e+03,1.1679e-11
3.7200e+03,1.1677e-11
3.7300e+03,1.1674e-11
3.7400e+03,1.1671e-11
3.7500e+03,1.1668e-11
3.7600e+03,1.1665e-11
3.7700e+03,1.1662e-11
3.7800e+03,1.1659e-11
3.7900e+03,1.1656e-11
3.8000e+03,1.1652e-11
3.8100e+03,1.1649e-11
3.8200e+03,1.1646e-11
3.8300e+03,1.1642e-11
3.8400e+03,1.1639e-11
3.8500e+03,1.1636e-11
3.8600e+03,1.1632e-11
3.8700e+03,1.1629e-11
3.8800e+03,1.1626e-11
3.8900e+03,1.1623e-11
3.9000e+03,1.1620e-11
3.9100e+03,1.1618e-11
3.9200e+03,1.1615e-11
3.9300e+03,1.1613e-11
3.9400e+03,1.1610e-11
3.9500e+03,1.1608e-11
3.9600e+03,1.1606e-11
3.9700e+03,1.1604e-11
3.9800e+03,1.1602e-11
3.9900e+03,1.1601e-11
4.0000e+03,1.1599e-11
4.0100e+03,1.1598e-11
4.0200e+03,1.1596e-11
4.0300e+03,1.1595e-11
4.0400e+03,1.1594e-11
4.0500e+03,1.1593e-11
4.0600e+03,1.1593e-11
4.0700e+03,1.1592e-11
4.0800e+03,1.1591e-11
4.0900e+03,1.1590e-11
4.1000e+03,1.1590e-11
4.1100e+03,1.1589e-11
4.1200e+03,1.1589e-11
4.1300e+03,1.1589e-11
4.1400e+03,1.1588e-11
4.1500e+03,1.1588e-11
4.1600e+03,1.1588e-11
4.1700e+03,1.1587e-11
4.1800e+03,1.1587e-11
4.1900e+03,1.1587e-11
4.2000e+03,1.1587e-11
4.2100e+03,1.1587e-11
4.2200e+03,1.1587e-11
4.2300e+03,1.1586e-11
4.2400e+03,1.1586e-11
4.2500e+03,1.1586e-11
4.2600e+03,1.1586e-11
4.2700e+03,1.1586e-11
4.2800e+03,1.1586e-11
4.2900e+03,1.1586e-11
4.3000e+03,1.1586e-11
4.3100e+03,1.1586e-11
4.3200e+03,1.1586e-11
4.3300e+03,1.1586e-11
4.3400e+03,1.1586e-11
4.3500e+03,1.1586e-11
4.3600e+03,1.1586e-11
4.3700e+03,1.1586e-11
4.3800e+03,1.1586e-11
4.3900e+03,1.1586e-11
4.4000e+03,1.1586e-11
4.4100e+03,1.1586e-11
4.4200e+03,1.1586e-11
4.4300e+03,1.1586e-11
4.4400e+03,1.1586e-11
4.4500e+03,1.1586e-11
4.4600e+03,1.1587e-11
4.4700e+03,1.1587e-11
4.4800e+03,1.1587e-11
4.4900e+03,1.1587e-11
4.5000e+03,1.1587e-11
4.5100e+03,1.1587e-11
4.5200e+03,1.1587e-11
4.5300e+03,1.1587e-11
4.5400e+03,1.1587e-11
4.5500e+03,1.1587e-11
4.5600e+03,1.1587e-11
4.5700e+03,1.1587e-11
4.5800e+03,1.1587e-11
4.5900e+03,1.1587e-11
4.6000e+03,1.1587e-11
4.6100e+03,1.1587e-11
4.6200e+03,1.1587e-11
4.6300e+03,1.1587e-11
4.6400e+03,1.1587e-11
4.6500e+03,1.1587e-11
4.6600e+03,1.1587e-11
4.6700e+03,1.1587e-11
4.6800e+03,1.1587e-11
4.6900e+03,1.1587e-11
4.7000e+03,1.1587e-11
4.7100e+03,1.1587e-11
4.7200e+03,1.1587e-11
4.7300e+03,1.1587e-11
4.7400e+03,1.1586e-11
4.7500e+03,1.1586e-11
4.7600e+03,1.1586e-11
4.7700e+03,1.1587e-11
4.7800e+03,1.1587e-11
4.7900e+03,1.1587e-11
4.8000e+03,1.1587e-11
4.8100e+03,1.1587e-11
4.8200e+03,1.1588e-11
4.8300e+03,1.1588e-11
4.8400e+03,1.1588e-11
4.8500e+03,1.1589e-11
4.8600e+03,1.1590e-11
4.8700e+03,1.1591e-11
4.8800e+03,1.1592e-11
4.8900e+03,1.1593e-11
4.9000e+03,1.1594e-11
4.9100e+03,1.1596e-11
4.9200e+03,1.1597e-11
4.9300e+03,1.1599e-11
4.9400e+03,1.1601e-11
4.9500e+03,1.1604e-11
4.9600e+03,1.1606e-11
4.9700e+03,1.1609e-11
4.9800e+03,1.1612e-11
4.9900e+03,1.1616e-11
5.0000e+03,1.1619e-11
5.0100e+03,1.1623e-11
5.0200e+03,1.1627e-11
5.0300e+03,1.1631e-11
5.0400e+03,1.1635e-11
5.0500e+03,1.1639e-11
5.0600e+03,1.1644e-11
5.0700e+03,1.1649e-11
5.0800e+03,1.1653e-11
5.0900e+03,1.1658e-11
5.1000e+03,1.1663e-11
5.1100e+03,1.1668e-11
5.1200e+03,1.1673e-11
5.1300e+03,1.1678e-11
5.1400e+03,1.1683e-11
5.1500e+03,1.1687e-11
5.1600e+03,1.1692e-11
5.1700e+03,1.1697e-11
5.1800e+03,1.1702e-11
5.1900e+03,1.1707e-11
5.2000e+03,1.1711e-11
5.2100e+03,1.1716e-11
5.2200e+03,1.1721e-11
5.2300e+03,1.1725e-11
5.2400e+03,1.1730e-11
5.2500e+03,1.1734e-11
5.2600e+03,1.1738e-11
5.2700e+03,1.1743e-11
5.2800e+03,1.1747e-11
5.2900e+03,1.1751e-11
5.3000e+03,1.1755e-11
5.3100e+03,1.1759e-11
5.3200e+03,1.1763e-11
5.3300e+03,1.1767e-11
5.3400e+03,1.1770e-11
5.3500e+03,1.1774e-11
5.3600e+03,1.1777e-11
5.3700e+03,1.1780e-11
5.3800e+03,1.1782e-11
5.3900e+03,1.1785e-11
5.4000e+03,1.1787e-11
5.4100e+03,1.1789e-11
5.4200e+03,1.1791e-11
5.4300e+03,1.1792e-11
5.4400e+03,1.1793e-11
5.4500e+03,1.1794e-11
5.4600e+03,1.1795e-11
5.4700e+03,1.1795e-11
5.4800e+03,1.1796e-11
5.4900e+03,1.1796e-11
5.5000e+03,1.1796e-11
5.5100e+03,1.1796e-11
5.5200e+03,1.1795e-11
5.5300e+03,1.1795e-11
5.5400e+03,1.1795e-11
5.5500e+03,1.1794e-11
5.5600e+03,1.1794e-11
5.5700e+03,1.1794e-11
5.5800e+03,1.1793e-11
5.5900e+03,1.1793e-11
5.6000e+03,1.1793e-11
5.6100e+03,1.1792e-11
5.6200e+03,1.1792e-11
5.6300e+03,1.1792e-11
5.6400e+03,1.1792e-11
5.6500e+03,1.1792e-11
5.6600e+03,1.1792e-11
5.6700e+03,1.1792e-11
5.6800e+03,1.1792e-11
5.6900e+03,1.1792e-11
5.7000e+03,1.1792e-11
5.7100e+03,1.1791e-11
5.7200e+03,1.1791e-11
5.7300e+03,1.1790e-11
5.7400e+03,1.1790e-11
5.7500e+03,1.1789e-11
5.7600e+03,1.1788e-11
5.7700e+03,1.1787e-11
5.7800e+03,1.1786e-11
5.7900e+03,1.1784e-11
5.8000e+03,1.1782e-11
5.8100e+03,1.1780e-11
5.8200e+03,1.1778e-11
5.8300e+03,1.1775e-11
5.8400e+03,1.1773e-11
5.8500e+03,1.1770e-11
5.8600e+03,1.1767e-11
5.8700e+03,1.1764e-11
5.8800e+03,1.1761e-11
5.8900e+03,1.1758e-11
5.9000e+03,1.1754e-11
5.9100e+03,1.1751e-11
5.9200e+03,1.1748e-11
5.9300e+03,1.1745e-11
5.9400e+03,1.1742e-11
5.9500e+03,1.1739e-11
5.9600e+03,1.1737e-11
5.9700e+03,1.1734e-11
5.9800e+03,1.1732e-11
5.9900e+03,1.1730e-11
6.0000e+03,1.1728e-11
6.0100e+03,1.1727e-11
6.0200e+03,1.1726e-11
6.0300e+03,1.1724e-11
6.0400e+03,1.1724e-11
6.0500e+03,1.1723e-11
6.0600e+03,1.1722e-11
6.0700e+03,1.1722e-11
6.0800e+03,1.1721e-11
6.0900e+03,1.1721e-11
6.1000e+03,1.1720e-11
6.1100e+03,1.1719e-11
6.1200e+03,1.1719e-11
6.1300e+03,1.1718e-11
6.1400e+03,1.1717e-11
6.1500e+03,1.1716e-11
6.1600e+03,1.1714e-11
6.1700e+03,1.1712e-11
6.1800e+03,1.1711e-11
6.1900e+03,1.1708e-11
6.2000e+03,1.1706e-11
6.2100e+03,1.1703e-11
6.2200e+03,1.1700e-11
6.2300e+03,1.1697e-11
6.2400e+03,1.1694e-11
6.2500e+03,1.1690e-11
6.2600e+03,1.1686e-11
6.2700e+03,1.1683e-11
6.2800e+03,1.1679e-11
6.2900e+03,1.1675e-11
6.3000e+03,1.1672e-11
6.3100e+03,1.1668e-11
6.3200e+03,1.1665e-11
6.3300e+03,1.1662e-11
6.3400e+03,1.1659e-11
6.3500e+03,1.1656e-11
6.3600e+03,1.1653e-11
6.3700e+03,1.1651e-11
6.3800e+03,1.1649e-11
6.3900e+03,1.1648e-11
6.4000e+03,1.1647e-11
6.4100e+03,1.1646e-11
6.4200e+03,1.1645e-11
6.4300e+03,1.1645e-11
6.4400e+03,1.1645e-11
6.4500e+03,1.1645e-11
6.4600e+03,1.1645e-11
6.4700e+03,1.1646e-11
6.4800e+03,1.1647e-11
6.4900e+03,1.1648e-11
6.5000e+03,1.1648e-11
6.5100e+03,1.1649e-11
6.5200e+03,1.1650e-11
6.5300e+03,1.1651e-11
6.5400e+03,1.1652e-11
6.5500e+03,1.1652e-11
6.5600e+03,1.1653e-11
6.5700e+03,1.1653e-11
6.5800e+03,1.1653e-11
6.5900e+03,1.1653e-11
6.6000e+03,1.1653e-11
6.6100e+03,1.1652e-11
6.6200e+03,1.1651e-11
6.6300e+03,1.1650e-11
6.6400e+03,1.1648e-11
6.6500e+03,1.1646e-11
6.6600e+03,1.1644e-11
6.6700e+03,1.1642e-11
6.6800e+03,1.1639e-11
6.6900e+03,1.1636e-11
6.7000e+03,1.1632e-11
6.7100e+03,1.1629e-11
6.7200e+03,1.1625e-11
6.7300e+03,1.1621e-11
6.7400e+03,1.1616e-11
6.7500e+03,1.1612e-11
6.7600e+03,1.1607e-11
6.7700e+03,1.1603e-11
6.7800e+03,1.1598e-11
6.7900e+03,1.1593e-11
6.8000e+03,1.1588e-11
6.8100e+03,1.1583e-11
6.8200e+03,1.1578e-11
6.8300e+03,1.1574e-11
6.8400e+03,1.1569e-11
6.8500e+03,1.1565e-11
6.8600e+03,1.1560e-11
6.8700e+03,1.1556e-11
6.8800e+03,1.1553e-11
6.8900e+03,1.1549e-11
6.9000e+03,1.1546e-11
6.9100e+03,1.1543e-11
6.9200e+03,1.1541e-11
6.9300e+03,1.1539e-11
6.9400e+03,1.1537e-11
6.9500e+03,1.1536e-11
6.9600e+03,1.1536e-11
6.9700e+03,1.1535e-11
6.9800e+03,1.1536e-11
6.9900e+03,1.1536e-11
7.0000e+03,1.1537e-11
7.0100e+03,1.1539e-11
7.0200e+03,1.1541e-11
7.0300e+03,1.1544e-11
7.0400e+03,1.1547e-11
7.0500e+03,1.1550e-11
7.0600e+03,1.1554e-11
7.0700e+03,1.1558e-11
7.0800e+03,1.1563e-11
7.0900e+03,1.1568e-11
7.1000e+03,1.1573e-11
7.1100e+03,1.1579e-11
7.1200e+03,1.1585e-11
7.1300e+03,1.1591e-11
7.1400e+03,1.1598e-11
7.1500e+03,1.1604e-11
7.1600e+03,1.1611e-11
7.1700e+03,1.1618e-11
7.1800e+03,1.1625e-11
7.1900e+03,1.1633e-11
7.2000e+03,1.1640e-11
7.2100e+03,1.1647e-11
7.2200e+03,1.1655e-11
7.2300e+03,1.1662e-11
7.2400e+03,1.1670e-11
7.2500e+03,1.1677e-11
7.2600e+03,1.1685e-11
7.2700e+03,1.1692e-11
7.2800e+03,1.1699e-11
7.2900e+03,1.1706e-11
7.3000e+03,1.1713e-11
7.3100e+03,1.1720e-11
7.3200e+03,1.1726e-11
7.3300e+03,1.1733e-11
7.3400e+03,1.1739e-11
7.3500e+03,1.1745e-11
7.3600e+03,1.1750e-11
7.3700e+03,1.1756e-11
7.3800e+03,1.1761e-11
7.3900e+03,1.1765e-11
7.4000e+03,1.1770e-11
7.4100e+03,1.1774e-11
7.4200e+03,1.1778e-11
7.4300e+03,1.1781e-11
7.4400e+03,1.1784e-11
7.4500e+03,1.1786e-11
7.4600e+03,1.1788e-11
7.4700e+03,1.1790e-11
7.4800e+03,1.1791e-11
7.4900e+03,1.1792e-11
7.5000e+03,1.1793e-11
7.5100e+03,1.1793e-11
7.5200e+03,1.1792e-11
7.5300e+03,1.1791e-11
7.5400e+03,1.1790e-11
7.5500e+03,1.1788e-11
7.5600e+03,1.1787e-11
7.5700e+03,1.1784e-11
7.5800e+03,1.1781e-11
7.5900e+03,1.1778e-11
7.6000e+03,1.1775e-11
7.6100e+03,1.1772e-11
7.6200e+03,1.1768e-11
7.6300e+03,1.1764e-11
7.6400e+03,1.1759e-11
7.6500e+03,1.1755e-11
7.6600e+03,1.1750e-11
7.6700e+03,1.1745e-11
7.6800e+03,1.1740e-11
7.6900e+03,1.1735e-11
7.7000e+03,1.1730e-11
7.7100e+03,1.1725e-11
7.7200e+03,1.1720e-11
7.7300e+03,1.1715e-11
7.7400e+03,1.1710e-11
7.7500e+03,1.1705e-11
7.7600e+03,1.1700e-11
7.7700e+03,1.1696e-11
7.7800e+03,1.1691e-11
7.7900e+03,1.1687e-11
7.8000e+03,1.1684e-11
7.8100e+03,1.1680e-11
7.8200e+03,1.1677e-11
7.8300e+03,1.1674e-11
7.8400e+03,1.1671e-11
7.8500e+03,1.1669e-11
7.8600e+03,1.1668e-11
7.8700e+03,1.1667e-11
7.8800e+03,1.1666e-11
7.8900e+03,1.1666e-11
7.9000e+03,1.1666e-11
7.9100e+03,1.1667e-11
7.9200e+03,1.1669e-11
7.9300e+03,1.1671e-11
7.9400e+03,1.1674e-11
7.9500e+03,1.1677e-11
7.9600e+03,1.1680e-11
7.9700e+03,1.1685e-11
7.9800e+03,1.1689e-11
7.9900e+03,1.1695e-11
8.0000e+03,1.1700e-11
8.0100e+03,1.1706e-11
8.0200e+03,1.1713e-11
8.0300e+03,1.1720e-11
8.0400e+03,1.1727e-11
8.0500e+03,1.1734e-11
8.0600e+03,1.1741e-11
8.0700e+03,1.1749e-11
8.0800e+03,1.1757e-11
8.0900e+03,1.1764e-11
8.1000e+03,1.1771e-11
8.1100e+03,1.1779e-11
8.1200e+03,1.1786e-11
8.1300e+03,1.1792e-11
8.1400e+03,1.1798e-11
8.1500e+03,1.1804e-11
8.1600e+03,1.1809e-11
8.1700e+03,1.1813e-11
8.1800e+03,1.1816e-11
8.1900e+03,1.1819e-11
8.2000e+03,1.1821e-11
8.2100e+03,1.1822e-11
8.2200e+03,1.1821e-11
8.2300e+03,1.1820e-11
8.2400e+03,1.1818e-11
8.2500e+03,1.1814e-11
8.2600e+03,1.1809e-11
8.2700e+03,1.1803e-11
8.2800e+03,1.1796e-11
8.2900e+03,1.1788e-11
8.3000e+03,1.1778e-11
8.3100e+03,1.1767e-11
8.3200e+03,1.1755e-11
8.3300e+03,1.1742e-11
8.3400e+03,1.1728e-11
8.3500e+03,1.1712e-11
8.3600e+03,1.1696e-11
8.3700e+03,1.1679e-11
8.3800e+03,1.1661e-11
8.3900e+03,1.1642e-11
8.4000e+03,1.1622e-11
8.4100e+03,1.1602e-11
8.4200e+03,1.1581e-11
8.4300e+03,1.1559e-11
8.4400e+03,1.1537e-11
8.4500e+03,1.1515e-11
8.4600e+03,1.1493e-11
8.4700e+03,1.1470e-11
8.4800e+03,1.1447e-11
8.4900e+03,1.1425e-11
8.5000e+03,1.1402e-11
8.5100e+03,1.1380e-11
8.5200e+03,1.1358e-11
8.5300e+03,1.1336e-11
8.5400e+03,1.1315e-11
8.5500e+03,1.1294e-11
8.5600e+03,1.1274e-11
8.5700e+03,1.1254e-11
8.5800e+03,1.1235e-11
8.5900e+03,1.1217e-11
8.6000e+03,1.1199e-11
8.6100e+03,1.1183e-11
8.6200e+03,1.1167e-11
8.6300e+03,1.1153e-11
8.6400e+03,1.1139e-11
8.6500e+03,1.1126e-11
8.6600e+03,1.1114e-11
8.6700e+03,1.1104e-11
8.6800e+03,1.1094e-11
8.6900e+03,1.1086e-11
8.7000e+03,1.1078e-11
8.7100e+03,1.1072e-11
8.7200e+03,1.1067e-11
8.7300e+03,1.1063e-11
8.7400e+03,1.1060e-11
8.7500e+03,1.1059e-11
8.7600e+03,1.1058e-11
8.7700e+03,1.1059e-11
8.7800e+03,1.1061e-11
8.7900e+03,1.1065e-11
8.8000e+03,1.1069e-11
8.8100e+03,1.1075e-11
8.8200e+03,1.1082e-11
8.8300e+03,1.1090e-11
8.8400e+03,1.1099e-11
8.8500e+03,1.1110e-11
8.8600e+03,1.1122e-11
8.8700e+03,1.1134e-11
8.8800e+03,1.1149e-11
8.8900e+03,1.1164e-11
8.9000e+03,1.1180e-11
8.9100e+03,1.1197e-11
8.9200e+03,1.1216e-11
8.9300e+03,1.1235e-11
8.9400e+03,1.1256e-11
8.9500e+03,1.1277e-11
8.9600e+03,1.1299e-11
8.9700e+03,1.1322e-11
8.9800e+03,1.1346e-11
8.9900e+03,1.1370e-11
9.0000e+03,1.1396e-11
9.0100e+03,1.1421e-11
9.0200e+03,1.1447e-11
9.0300e+03,1.1474e-11
9.0400e+03,1.1501e-11
9.0500e+03,1.1528e-11
9.0600e+03,1.1555e-11
9.0700e+03,1.1582e-11
