# Time , Side-Flux
0.0000e+00,0.0000e+00
1.0000e+01,1.6810e-09
2.0000e+01,3.0540e-09
3.0000e+01,4.0261e-09
4.0000e+01,4.6673e-09
5.0000e+01,5.0815e-09
6.0000e+01,5.3507e-09
7.0000e+01,5.5288e-09
8.0000e+01,5.6492e-09
9.0000e+01,5.7326e-09
1.0000e+02,5.7916e-09
1.1000e+02,5.8342e-09
1.2000e+02,5.8657e-09
1.3000e+02,5.8894e-09
1.4000e+02,5.9074e-09
1.5000e+02,5.9213e-09
1.6000e+02,5.9322e-09
1.7000e+02,5.9409e-09
1.8000e+02,5.9480e-09
1.9000e+02,5.9539e-09
2.0000e+02,5.9589e-09
2.1000e+02,5.9629e-09
2.2000e+02,5.9662e-09
2.3000e+02,5.9688e-09
2.4000e+02,5.9707e-09
2.5000e+02,5.9722e-09
2.6000e+02,5.9734e-09
2.7000e+02,5.9745e-09
2.8000e+02,5.9756e-09
2.9000e+02,5.9769e-09
3.0000e+02,5.9779e-09
3.1000e+02,5.9789e-09
3.2000e+02,5.9805e-09
3.3000e+02,5.9824e-09
3.4000e+02,5.9835e-09
3.5000e+02,5.9836e-09
3.6000e+02,5.9837e-09
3.7000e+02,5.9850e-09
3.8000e+02,5.9871e-09
3.9000e+02,5.9887e-09
4.0000e+02,5.9893e-09
4.1000e+02,5.9887e-09
4.2000e+02,5.9879e-09
4.3000e+02,5.9876e-09
4.4000e+02,5.9880e-09
4.5000e+02,5.9887e-09
4.6000e+02,5.9891e-09
4.7000e+02,5.9892e-09
4.8000e+02,5.9891e-09
4.9000e+02,5.9890e-09
5.0000e+02,5.9889e-09
5.1000e+02,5.9889e-09
5.2000e+02,5.9889e-09
5.3000e+02,5.9889e-09
5.4000e+02,5.9888e-09
5.5000e+02,5.9886e-09
5.6000e+02,5.9883e-09
5.7000e+02,5.9879e-09
5.8000e+02,5.9877e-09
5.9000e+02,5.9878e-09
6.0000e+02,5.9887e-09
6.1000e+02,5.9900e-09
6.2000e+02,5.9908e-09
6.3000e+02,5.9904e-09
6.4000e+02,5.9892e-09
6.5000e+02,5.9879e-09
6.6000e+02,5.9869e-09
6.7000e+02,5.9858e-09
6.8000e+02,5.9838e-09
6.9000e+02,5.9806e-09
7.0000e+02,5.9774e-09
7.1000e+02,5.9756e-09
7.2000e+02,5.9758e-09
7.3000e+02,5.9777e-09
7.4000e+02,5.9798e-09
7.5000e+02,5.9805e-09
7.6000e+02,5.9799e-09
7.7000e+02,5.9785e-09
7.8000e+02,5.9771e-09
7.9000e+02,5.9760e-09
8.0000e+02,5.9762e-09
8.1000e+02,5.9781e-09
8.2000e+02,5.9817e-09
8.3000e+02,5.9860e-09
8.4000e+02,5.9894e-09
8.5000e+02,5.9904e-09
8.6000e+02,5.9893e-09
8.7000e+02,5.9876e-09
8.8000e+02,5.9856e-09
8.9000e+02,5.9828e-09
9.0000e+02,5.9794e-09
9.1000e+02,5.9772e-09
9.2000e+02,5.9775e-09
9.3000e+02,5.9792e-09
9.4000e+02,5.9799e-09
9.5000e+02,5.9786e-09
9.6000e+02,5.9766e-09
9.7000e+02,5.9762e-09
9.8000e+02,5.9771e-09
9.9000e+02,5.9761e-09
1.0000e+03,5.9708e-09
1.0100e+03,5.9619e-09
1.0200e+03,5.9537e-09
1.0300e+03,5.9501e-09
1.0400e+03,5.9483e-09
1.0500e+03,5.9453e-09
1.0600e+03,5.9417e-09
1.0700e+03,5.9396e-09
1.0800e+03,5.9411e-09
1.0900e+03,5.9473e-09
1.1000e+03,5.9552e-09
1.1100e+03,5.9596e-09
1.1200e+03,5.9596e-09
1.1300e+03,5.9576e-09
1.1400e+03,5.9557e-09
1.1500e+03,5.9544e-09
1.1600e+03,5.9542e-09
1.1700e+03,5.9552e-09
1.1800e+03,5.9560e-09
1.1900e+03,5.9552e-09
1.2000e+03,5.9530e-09
1.2100e+03,5.9508e-09
1.2200e+03,5.9496e-09
1.2300e+03,5.9498e-09
1.2400e+03,5.9519e-09
1.2500e+03,5.9553e-09
1.2600e+03,5.9580e-09
1.2700e+03,5.9587e-09
1.2800e+03,5.9578e-09
1.2900e+03,5.9562e-09
1.3000e+03,5.9542e-09
1.3100e+03,5.9523e-09
1.3200e+03,5.9519e-09
1.3300e+03,5.9532e-09
1.3400e+03,5.9552e-09
1.3500e+03,5.9578e-09
1.3600e+03,5.9610e-09
1.3700e+03,5.9640e-09
1.3800e+03,5.9660e-09
1.3900e+03,5.9660e-09
1.4000e+03,5.9639e-09
1.4100e+03,5.9610e-09
1.4200e+03,5.9589e-09
1.4300e+03,5.9579e-09
1.4400e+03,5.9576e-09
1.4500e+03,5.9576e-09
1.4600e+03,5.9576e-09
1.4700e+03,5.9576e-09
1.4800e+03,5.9576e-09
1.4900e+03,5.9576e-09
1.5000e+03,5.9576e-09
1.5100e+03,5.9576e-09
1.5200e+03,5.9576e-09
1.5300e+03,5.9576e-09
1.5400e+03,5.9575e-09
1.5500e+03,5.9575e-09
1.5600e+03,5.9575e-09
1.5700e+03,5.9573e-09
1.5800e+03,5.9568e-09
1.5900e+03,5.9559e-09
1.6000e+03,5.9553e-09
1.6100e+03,5.9548e-09
1.6200e+03,5.9542e-09
1.6300e+03,5.9540e-09
1.6400e+03,5.9551e-09
1.6500e+03,5.9573e-09
1.6600e+03,5.9589e-09
1.6700e+03,5.9583e-09
1.6800e+03,5.9557e-09
1.6900e+03,5.9523e-09
1.7000e+03,5.9501e-09
1.7100e+03,5.9495e-09
1.7200e+03,5.9493e-09
1.7300e+03,5.9495e-09
1.7400e+03,5.9512e-09
1.7500e+03,5.9541e-09
1.7600e+03,5.9560e-09
1.7700e+03,5.9558e-09
1.7800e+03,5.9542e-09
1.7900e+03,5.9521e-09
1.8000e+03,5.9502e-09
1.8100e+03,5.9488e-09
1.8200e+03,5.9480e-09
1.8300e+03,5.9481e-09
1.8400e+03,5.9493e-09
1.8500e+03,5.9514e-09
1.8600e+03,5.9533e-09
1.8700e+03,5.9537e-09
1.8800e+03,5.9525e-09
1.8900e+03,5.9514e-09
1.9000e+03,5.9515e-09
1.9100e+03,5.9523e-09
1.9200e+03,5.9528e-09
1.9300e+03,5.9529e-09
1.9400e+03,5.9536e-09
1.9500e+03,5.9546e-09
1.9600e+03,5.9545e-09
1.9700e+03,5.9532e-09
1.9800e+03,5.9510e-09
1.9900e+03,5.9488e-09
2.0000e+03,5.9474e-09
2.0100e+03,5.9482e-09
2.0200e+03,5.9508e-09
2.0300e+03,5.9518e-09
2.0400e+03,5.9488e-09
2.0500e+03,5.9451e-09
2.0600e+03,5.9451e-09
2.0700e+03,5.9467e-09
2.0800e+03,5.9458e-09
2.0900e+03,5.9428e-09
2.1000e+03,5.9408e-09
2.1100e+03,5.9413e-09
2.1200e+03,5.9413e-09
2.1300e+03,5.9379e-09
2.1400e+03,5.9323e-09
2.1500e+03,5.9289e-09
2.1600e+03,5.9300e-09
2.1700e+03,5.9344e-09
2.1800e+03,5.9396e-09
2.1900e+03,5.9446e-09
2.2000e+03,5.9484e-09
2.2100e+03,5.9504e-09
2.2200e+03,5.9510e-09
2.2300e+03,5.9508e-09
2.2400e+03,5.9490e-09
2.2500e+03,5.9455e-09
2.2600e+03,5.9428e-09
2.2700e+03,5.9421e-09
2.2800e+03,5.9425e-09
2.2900e+03,5.9424e-09
2.3000e+03,5.9414e-09
2.3100e+03,5.9404e-09
2.3200e+03,5.9402e-09
2.3300e+03,5.9410e-09
2.3400e+03,5.9422e-09
2.3500e+03,5.9431e-09
2.3600e+03,5.9426e-09
2.3700e+03,5.9410e-09
2.3800e+03,5.9403e-09
2.3900e+03,5.9417e-09
2.4000e+03,5.9444e-09
2.4100e+03,5.9465e-09
2.4200e+03,5.9465e-09
2.4300e+03,5.9447e-09
2.4400e+03,5.9421e-09
2.4500e+03,5.9398e-09
2.4600e+03,5.9381e-09
2.4700e+03,5.9372e-09
2.4800e+03,5.9376e-09
2.4900e+03,5.9393e-09
2.5000e+03,5.9416e-09
2.5100e+03,5.9430e-09
2.5200e+03,5.9429e-09
2.5300e+03,5.9423e-09
2.5400e+03,5.9417e-09
2.5500e+03,5.9414e-09
2.5600e+03,5.9411e-09
2.5700e+03,5.9409e-09
2.5800e+03,5.9410e-09
2.5900e+03,5.9412e-09
2.6000e+03,5.9414e-09
2.6100e+03,5.9414e-09
2.6200e+03,5.9410e-09
2.6300e+03,5.9401e-09
2.6400e+03,5.9384e-09
2.6500e+03,5.9368e-09
2.6600e+03,5.9367e-09
2.6700e+03,5.9398e-09
2.6800e+03,5.9457e-09
2.6900e+03,5.9512e-09
2.7000e+03,5.9527e-09
2.7100e+03,5.9486e-09
2.7200e+03,5.9408e-09
2.7300e+03,5.9334e-09
2.7400e+03,5.9292e-09
2.7500e+03,5.9278e-09
2.7600e+03,5.9276e-09
2.7700e+03,5.9270e-09
2.7800e+03,5.9255e-09
2.7900e+03,5.9237e-09
2.8000e+03,5.9225e-09
2.8100e+03,5.9222e-09
2.8200e+03,5.9227e-09
2.8300e+03,5.9242e-09
2.8400e+03,5.9266e-09
2.8500e+03,5.9289e-09
2.8600e+03,5.9290e-09
2.8700e+03,5.9253e-09
2.8800e+03,5.9169e-09
2.8900e+03,5.9052e-09
2.9000e+03,5.8941e-09
2.9100e+03,5.8878e-09
2.9200e+03,5.8885e-09
2.9300e+03,5.8963e-09
2.9400e+03,5.9090e-09
2.9500e+03,5.9234e-09
2.9600e+03,5.9366e-09
2.9700e+03,5.9465e-09
2.9800e+03,5.9511e-09
2.9900e+03,5.9486e-09
3.0000e+03,5.9399e-09
3.0100e+03,5.9285e-09
3.0200e+03,5.9186e-09
3.0300e+03,5.9128e-09
3.0400e+03,5.9123e-09
3.0500e+03,5.9185e-09
3.0600e+03,5.9316e-09
3.0700e+03,5.9484e-09
3.0800e+03,5.9631e-09
3.0900e+03,5.9694e-09
3.1000e+03,5.9634e-09
3.1100e+03,5.9439e-09
3.1200e+03,5.9137e-09
3.1300e+03,5.8787e-09
3.1400e+03,5.8452e-09
3.1500e+03,5.8173e-09
3.1600e+03,5.7961e-09
3.1700e+03,5.7814e-09
3.1800e+03,5.7723e-09
3.1900e+03,5.7683e-09
3.2000e+03,5.7689e-09
3.2100e+03,5.7735e-09
3.2200e+03,5.7813e-09
3.2300e+03,5.7902e-09
3.2400e+03,5.7971e-09
3.2500e+03,5.7991e-09
3.2600e+03,5.7955e-09
3.2700e+03,5.7874e-09
3.2800e+03,5.7763e-09
3.2900e+03,5.7629e-09
3.3000e+03,5.7473e-09
3.3100e+03,5.7315e-09
3.3200e+03,5.7188e-09
3.3300e+03,5.7104e-09
3.3400e+03,5.7055e-09
3.3500e+03,5.7035e-09
3.3600e+03,5.7044e-09
3.3700e+03,5.7080e-09
3.3800e+03,5.7136e-09
3.3900e+03,5.7202e-09
3.4000e+03,5.7268e-09
3.4100e+03,5.7332e-09
3.4200e+03,5.7408e-09
3.4300e+03,5.7510e-09
3.4400e+03,5.7643e-09
3.4500e+03,5.7788e-09
3.4600e+03,5.7926e-09
3.4700e+03,5.8054e-09
3.4800e+03,5.8176e-09
3.4900e+03,5.8295e-09
3.5000e+03,5.8400e-09
3.5100e+03,5.8465e-09
3.5200e+03,5.8477e-09
3.5300e+03,5.8451e-09
3.5400e+03,5.8416e-09
3.5500e+03,5.8391e-09
3.5600e+03,5.8377e-09
3.5700e+03,5.8371e-09
3.5800e+03,5.8371e-09
3.5900e+03,5.8371e-09
3.6000e+03,5.8371e-09
3.6100e+03,5.8371e-09
3.6200e+03,5.8370e-09
3.6300e+03,5.8367e-09
3.6400e+03,5.8364e-09
3.6500e+03,5.8365e-09
3.6600e+03,5.8378e-09
3.6700e+03,5.8399e-09
3.6800e+03,5.8410e-09
3.6900e+03,5.8391e-09
3.7000e+03,5.8333e-09
3.7100e+03,5.8251e-09
3.7200e+03,5.8172e-09
3.7300e+03,5.8122e-09
3.7400e+03,5.8126e-09
3.7500e+03,5.8209e-09
3.7600e+03,5.8367e-09
3.7700e+03,5.8563e-09
3.7800e+03,5.8755e-09
3.7900e+03,5.8910e-09
3.8000e+03,5.9022e-09
3.8100e+03,5.9111e-09
3.8200e+03,5.9188e-09
3.8300e+03,5.9233e-09
3.8400e+03,5.9226e-09
3.8500e+03,5.9175e-09
3.8600e+03,5.9097e-09
3.8700e+03,5.8993e-09
3.8800e+03,5.8855e-09
3.8900e+03,5.8689e-09
3.9000e+03,5.8509e-09
3.9100e+03,5.8315e-09
3.9200e+03,5.8118e-09
3.9300e+03,5.7958e-09
3.9400e+03,5.7860e-09
3.9500e+03,5.7818e-09
3.9600e+03,5.7822e-09
3.9700e+03,5.7879e-09
3.9800e+03,5.8001e-09
3.9900e+03,5.8194e-09
4.0000e+03,5.8455e-09
4.0100e+03,5.8782e-09
4.0200e+03,5.9176e-09
4.0300e+03,5.9636e-09
4.0400e+03,6.0159e-09
4.0500e+03,6.0728e-09
4.0600e+03,6.1327e-09
4.0700e+03,6.1973e-09
4.0800e+03,6.2692e-09
4.0900e+03,6.3490e-09
4.1000e+03,6.4320e-09
4.1100e+03,6.5107e-09
4.1200e+03,6.5795e-09
4.1300e+03,6.6366e-09
4.1400e+03,6.6826e-09
4.1500e+03,6.7178e-09
4.1600e+03,6.7417e-09
4.1700e+03,6.7540e-09
4.1800e+03,6.7563e-09
4.1900e+03,6.7519e-09
4.2000e+03,6.7446e-09
4.2100e+03,6.7380e-09
4.2200e+03,6.7338e-09
4.2300e+03,6.7321e-09
4.2400e+03,6.7318e-09
4.2500e+03,6.7318e-09
4.2600e+03,6.7317e-09
4.2700e+03,6.7314e-09
4.2800e+03,6.7312e-09
4.2900e+03,6.7310e-09
4.3000e+03,6.7310e-09
4.3100e+03,6.7314e-09
4.3200e+03,6.7321e-09
4.3300e+03,6.7331e-09
4.3400e+03,6.7340e-09
4.3500e+03,6.7347e-09
4.3600e+03,6.7353e-09
4.3700e+03,6.7358e-09
4.3800e+03,6.7363e-09
4.3900e+03,6.7367e-09
4.4000e+03,6.7366e-09
4.4100e+03,6.7360e-09
4.4200e+03,6.7349e-09
4.4300e+03,6.7336e-09
4.4400e+03,6.7324e-09
4.4500e+03,6.7313e-09
4.4600e+03,6.7302e-09
4.4700e+03,6.7291e-09
4.4800e+03,6.7279e-09
4.4900e+03,6.7269e-09
4.5000e+03,6.7263e-09
4.5100e+03,6.7261e-09
4.5200e+03,6.7263e-09
4.5300e+03,6.7266e-09
4.5400e+03,6.7269e-09
4.5500e+03,6.7276e-09
4.5600e+03,6.7287e-09
4.5700e+03,6.7300e-09
4.5800e+03,6.7310e-09
4.5900e+03,6.7315e-09
4.6000e+03,6.7318e-09
4.6100e+03,6.7319e-09
4.6200e+03,6.7319e-09
4.6300e+03,6.7318e-09
4.6400e+03,6.7316e-09
4.6500e+03,6.7311e-09
4.6600e+03,6.7298e-09
4.6700e+03,6.7275e-09
4.6800e+03,6.7237e-09
4.6900e+03,6.7181e-09
4.7000e+03,6.7106e-09
4.7100e+03,6.7005e-09
4.7200e+03,6.6868e-09
4.7300e+03,6.6684e-09
4.7400e+03,6.6454e-09
4.7500e+03,6.6195e-09
4.7600e+03,6.5925e-09
4.7700e+03,6.5657e-09
4.7800e+03,6.5389e-09
4.7900e+03,6.5096e-09
4.8000e+03,6.4767e-09
4.8100e+03,6.4429e-09
4.8200e+03,6.4117e-09
4.8300e+03,6.3849e-09
4.8400e+03,6.3650e-09
4.8500e+03,6.3527e-09
4.8600e+03,6.3447e-09
4.8700e+03,6.3372e-09
4.8800e+03,6.3295e-09
4.8900e+03,6.3227e-09
4.9000e+03,6.3190e-09
4.9100e+03,6.3208e-09
4.9200e+03,6.3291e-09
4.9300e+03,6.3416e-09
4.9400e+03,6.3522e-09
4.9500e+03,6.3578e-09
4.9600e+03,6.3623e-09
4.9700e+03,6.3717e-09
4.9800e+03,6.3895e-09
4.9900e+03,6.4157e-09
5.0000e+03,6.4470e-09
5.0100e+03,6.4783e-09
5.0200e+03,6.5061e-09
5.0300e+03,6.5300e-09
5.0400e+03,6.5504e-09
5.0500e+03,6.5659e-09
5.0600e+03,6.5751e-09
5.0700e+03,6.5770e-09
5.0800e+03,6.5712e-09
5.0900e+03,6.5616e-09
5.1000e+03,6.5580e-09
5.1100e+03,6.5680e-09
5.1200e+03,6.5894e-09
5.1300e+03,6.6132e-09
5.1400e+03,6.6312e-09
5.1500e+03,6.6399e-09
5.1600e+03,6.6400e-09
5.1700e+03,6.6348e-09
5.1800e+03,6.6293e-09
5.1900e+03,6.6252e-09
5.2000e+03,6.6192e-09
5.2100e+03,6.6065e-09
5.2200e+03,6.5872e-09
5.2300e+03,6.5653e-09
5.2400e+03,6.5457e-09
5.2500e+03,6.5312e-09
5.2600e+03,6.5205e-09
5.2700e+03,6.5101e-09
5.2800e+03,6.4989e-09
5.2900e+03,6.4865e-09
5.3000e+03,6.4730e-09
5.3100e+03,6.4593e-09
5.3200e+03,6.4461e-09
5.3300e+03,6.4333e-09
5.3400e+03,6.4205e-09
5.3500e+03,6.4083e-09
5.3600e+03,6.3984e-09
5.3700e+03,6.3920e-09
5.3800e+03,6.3889e-09
5.3900e+03,6.3878e-09
5.4000e+03,6.3873e-09
5.4100e+03,6.3864e-09
5.4200e+03,6.3839e-09
5.4300e+03,6.3782e-09
5.4400e+03,6.3677e-09
5.4500e+03,6.3521e-09
5.4600e+03,6.3345e-09
5.4700e+03,6.3219e-09
5.4800e+03,6.3185e-09
5.4900e+03,6.3212e-09
5.5000e+03,6.3249e-09
5.5100e+03,6.3274e-09
5.5200e+03,6.3281e-09
5.5300e+03,6.3263e-09
5.5400e+03,6.3219e-09
5.5500e+03,6.3159e-09
5.5600e+03,6.3100e-09
5.5700e+03,6.3055e-09
5.5800e+03,6.3026e-09
5.5900e+03,6.3011e-09
5.6000e+03,6.3001e-09
5.6100e+03,6.2993e-09
5.6200e+03,6.2989e-09
5.6300e+03,6.2988e-09
5.6400e+03,6.2989e-09
5.6500e+03,6.2990e-09
5.6600e+03,6.2992e-09
5.6700e+03,6.2992e-09
5.6800e+03,6.2991e-09
5.6900e+03,6.2990e-09
5.7000e+03,6.2990e-09
5.7100e+03,6.2991e-09
5.7200e+03,6.2994e-09
5.7300e+03,6.2997e-09
5.7400e+03,6.2999e-09
5.7500e+03,6.2991e-09
5.7600e+03,6.2959e-09
5.7700e+03,6.2894e-09
5.7800e+03,6.2801e-09
5.7900e+03,6.2689e-09
5.8000e+03,6.2569e-09
5.8100e+03,6.2458e-09
5.8200e+03,6.2381e-09
5.8300e+03,6.2358e-09
5.8400e+03,6.2374e-09
5.8500e+03,6.2375e-09
5.8600e+03,6.2316e-09
5.8700e+03,6.2205e-09
5.8800e+03,6.2082e-09
5.8900e+03,6.1984e-09
5.9000e+03,6.1919e-09
5.9100e+03,6.1881e-09
5.9200e+03,6.1857e-09
5.9300e+03,6.1842e-09
5.9400e+03,6.1834e-09
5.9500e+03,6.1834e-09
5.9600e+03,6.1833e-09
5.9700e+03,6.1824e-09
5.9800e+03,6.1812e-09
5.9900e+03,6.1807e-09
6.0000e+03,6.1810e-09
6.0100e+03,6.1814e-09
6.0200e+03,6.1808e-09
6.0300e+03,6.1770e-09
6.0400e+03,6.1670e-09
6.0500e+03,6.1492e-09
6.0600e+03,6.1225e-09
6.0700e+03,6.0861e-09
6.0800e+03,6.0399e-09
6.0900e+03,5.9865e-09
6.1000e+03,5.9298e-09
6.1100e+03,5.8741e-09
6.1200e+03,5.8243e-09
6.1300e+03,5.7845e-09
6.1400e+03,5.7560e-09
6.1500e+03,5.7349e-09
6.1600e+03,5.7141e-09
6.1700e+03,5.6854e-09
6.1800e+03,5.6425e-09
6.1900e+03,5.5847e-09
6.2000e+03,5.5155e-09
6.2100e+03,5.4392e-09
6.2200e+03,5.3617e-09
6.2300e+03,5.2915e-09
6.2400e+03,5.2344e-09
6.2500e+03,5.1909e-09
6.2600e+03,5.1586e-09
6.2700e+03,5.1347e-09
6.2800e+03,5.1184e-09
6.2900e+03,5.1098e-09
6.3000e+03,5.1083e-09
6.3100e+03,5.1130e-09
6.3200e+03,5.1227e-09
6.3300e+03,5.1362e-09
6.3400e+03,5.1519e-09
6.3500e+03,5.1682e-09
6.3600e+03,5.1835e-09
6.3700e+03,5.1960e-09
6.3800e+03,5.2042e-09
6.3900e+03,5.2080e-09
6.4000e+03,5.2093e-09
6.4100e+03,5.2102e-09
6.4200e+03,5.2115e-09
6.4300e+03,5.2129e-09
6.4400e+03,5.2144e-09
6.4500e+03,5.2170e-09
6.4600e+03,5.2231e-09
6.4700e+03,5.2343e-09
6.4800e+03,5.2497e-09
6.4900e+03,5.2663e-09
6.5000e+03,5.2812e-09
6.5100e+03,5.2938e-09
6.5200e+03,5.3043e-09
6.5300e+03,5.3116e-09
6.5400e+03,5.3151e-09
6.5500e+03,5.3178e-09
6.5600e+03,5.3250e-09
6.5700e+03,5.3391e-09
6.5800e+03,5.3567e-09
6.5900e+03,5.3725e-09
6.6000e+03,5.3838e-09
6.6100e+03,5.3909e-09
6.6200e+03,5.3951e-09
6.6300e+03,5.3974e-09
6.6400e+03,5.3984e-09
6.6500e+03,5.3987e-09
6.6600e+03,5.3985e-09
6.6700e+03,5.3983e-09
6.6800e+03,5.3981e-09
6.6900e+03,5.3981e-09
6.7000e+03,5.3981e-09
6.7100e+03,5.3980e-09
6.7200e+03,5.3977e-09
6.7300e+03,5.3977e-09
6.7400e+03,5.3988e-09
6.7500e+03,5.4014e-09
6.7600e+03,5.4050e-09
6.7700e+03,5.4075e-09
6.7800e+03,5.4067e-09
6.7900e+03,5.4015e-09
6.8000e+03,5.3920e-09
6.8100e+03,5.3786e-09
6.8200e+03,5.3624e-09
6.8300e+03,5.3458e-09
6.8400e+03,5.3322e-09
6.8500e+03,5.3246e-09
6.8600e+03,5.3231e-09
6.8700e+03,5.3252e-09
6.8800e+03,5.3291e-09
6.8900e+03,5.3357e-09
6.9000e+03,5.3461e-09
6.9100e+03,5.3599e-09
6.9200e+03,5.3746e-09
6.9300e+03,5.3880e-09
6.9400e+03,5.3992e-09
6.9500e+03,5.4086e-09
6.9600e+03,5.4174e-09
6.9700e+03,5.4286e-09
6.9800e+03,5.4446e-09
6.9900e+03,5.4654e-09
7.0000e+03,5.4881e-09
7.0100e+03,5.5070e-09
7.0200e+03,5.5180e-09
7.0300e+03,5.5210e-09
7.0400e+03,5.5195e-09
7.0500e+03,5.5166e-09
7.0600e+03,5.5137e-09
7.0700e+03,5.5116e-09
7.0800e+03,5.5138e-09
7.0900e+03,5.5255e-09
7.1000e+03,5.5525e-09
7.1100e+03,5.5981e-09
7.1200e+03,5.6602e-09
7.1300e+03,5.7285e-09
7.1400e+03,5.7916e-09
7.1500e+03,5.8466e-09
7.1600e+03,5.9011e-09
7.1700e+03,5.9624e-09
7.1800e+03,6.0272e-09
7.1900e+03,6.0832e-09
7.2000e+03,6.1166e-09
7.2100e+03,6.1203e-09
7.2200e+03,6.0984e-09
7.2300e+03,6.0625e-09
7.2400e+03,6.0251e-09
7.2500e+03,5.9963e-09
7.2600e+03,5.9798e-09
7.2700e+03,5.9732e-09
7.2800e+03,5.9722e-09
7.2900e+03,5.9733e-09
7.3000e+03,5.9744e-09
7.3100e+03,5.9742e-09
7.3200e+03,5.9723e-09
7.3300e+03,5.9689e-09
7.3400e+03,5.9642e-09
7.3500e+03,5.9586e-09
7.3600e+03,5.9531e-09
7.3700e+03,5.9489e-09
7.3800e+03,5.9477e-09
7.3900e+03,5.9514e-09
7.4000e+03,5.9608e-09
7.4100e+03,5.9757e-09
7.4200e+03,5.9942e-09
7.4300e+03,6.0128e-09
7.4400e+03,6.0286e-09
7.4500e+03,6.0411e-09
7.4600e+03,6.0511e-09
7.4700e+03,6.0584e-09
7.4800e+03,6.0625e-09
7.4900e+03,6.0662e-09
7.5000e+03,6.0738e-09
7.5100e+03,6.0854e-09
7.5200e+03,6.0967e-09
7.5300e+03,6.1038e-09
7.5400e+03,6.1059e-09
7.5500e+03,6.1045e-09
7.5600e+03,6.1019e-09
7.5700e+03,6.1005e-09
7.5800e+03,6.1000e-09
7.5900e+03,6.0994e-09
7.6000e+03,6.0986e-09
7.6100e+03,6.0983e-09
7.6200e+03,6.0989e-09
7.6300e+03,6.0997e-09
7.6400e+03,6.0998e-09
7.6500e+03,6.0991e-09
7.6600e+03,6.0976e-09
7.6700e+03,6.0961e-09
7.6800e+03,6.0950e-09
7.6900e+03,6.0944e-09
7.7000e+03,6.0941e-09
7.7100e+03,6.0939e-09
7.7200e+03,6.0938e-09
7.7300e+03,6.0937e-09
7.7400e+03,6.0937e-09
7.7500e+03,6.0937e-09
7.7600e+03,6.0931e-09
7.7700e+03,6.0919e-09
7.7800e+03,6.0915e-09
7.7900e+03,6.0941e-09
7.8000e+03,6.1013e-09
7.8100e+03,6.1131e-09
7.8200e+03,6.1295e-09
7.8300e+03,6.1498e-09
7.8400e+03,6.1726e-09
7.8500e+03,6.1958e-09
7.8600e+03,6.2171e-09
7.8700e+03,6.2351e-09
7.8800e+03,6.2496e-09
7.8900e+03,6.2611e-09
7.9000e+03,6.2693e-09
7.9100e+03,6.2743e-09
7.9200e+03,6.2768e-09
7.9300e+03,6.2780e-09
7.9400e+03,6.2791e-09
7.9500e+03,6.2808e-09
7.9600e+03,6.2823e-09
7.9700e+03,6.2824e-09
7.9800e+03,6.2804e-09
7.9900e+03,6.2771e-09
8.0000e+03,6.2737e-09
8.0100e+03,6.2701e-09
8.0200e+03,6.2658e-09
8.0300e+03,6.2608e-09
8.0400e+03,6.2543e-09
8.0500e+03,6.2462e-09
8.0600e+03,6.2372e-09
8.0700e+03,6.2280e-09
8.0800e+03,6.2182e-09
8.0900e+03,6.2069e-09
8.1000e+03,6.1922e-09
8.1100e+03,6.1725e-09
8.1200e+03,6.1475e-09
8.1300e+03,6.1186e-09
8.1400e+03,6.0890e-09
8.1500e+03,6.0620e-09
8.1600e+03,6.0402e-09
8.1700e+03,6.0260e-09
8.1800e+03,6.0219e-09
8.1900e+03,6.0303e-09
8.2000e+03,6.0522e-09
8.2100e+03,6.0842e-09
8.2200e+03,6.1178e-09
8.2300e+03,6.1445e-09
8.2400e+03,6.1594e-09
8.2500e+03,6.1606e-09
8.2600e+03,6.1473e-09
8.2700e+03,6.1211e-09
8.2800e+03,6.0859e-09
8.2900e+03,6.0466e-09
8.3000e+03,6.0083e-09
8.3100e+03,5.9758e-09
8.3200e+03,5.9526e-09
8.3300e+03,5.9392e-09
8.3400e+03,5.9344e-09
8.3500e+03,5.9355e-09
8.3600e+03,5.9395e-09
8.3700e+03,5.9438e-09
8.3800e+03,5.9466e-09
8.3900e+03,5.9480e-09
8.4000e+03,5.9488e-09
8.4100e+03,5.9498e-09
8.4200e+03,5.9509e-09
8.4300e+03,5.9517e-09
8.4400e+03,5.9516e-09
8.4500e+03,5.9507e-09
8.4600e+03,5.9496e-09
8.4700e+03,5.9486e-09
8.4800e+03,5.9477e-09
8.4900e+03,5.9467e-09
8.5000e+03,5.9452e-09
8.5100e+03,5.9429e-09
8.5200e+03,5.9396e-09
8.5300e+03,5.9358e-09
8.5400e+03,5.9330e-09
8.5500e+03,5.9322e-09
8.5600e+03,5.9342e-09
8.5700e+03,5.9401e-09
8.5800e+03,5.9501e-09
8.5900e+03,5.9631e-09
8.6000e+03,5.9759e-09
8.6100e+03,5.9852e-09
8.6200e+03,5.9899e-09
8.6300e+03,5.9919e-09
8.6400e+03,5.9933e-09
8.6500e+03,5.9946e-09
8.6600e+03,5.9952e-09
8.6700e+03,5.9949e-09
8.6800e+03,5.9942e-09
8.6900e+03,5.9937e-09
8.7000e+03,5.9933e-09
8.7100e+03,5.9926e-09
8.7200e+03,5.9919e-09
8.7300e+03,5.9914e-09
8.7400e+03,5.9913e-09
8.7500e+03,5.9913e-09
8.7600e+03,5.9908e-09
8.7700e+03,5.9895e-09
8.7800e+03,5.9878e-09
8.7900e+03,5.9861e-09
8.8000e+03,5.9843e-09
8.8100e+03,5.9822e-09
8.8200e+03,5.9793e-09
8.8300e+03,5.9747e-09
8.8400e+03,5.9688e-09
8.8500e+03,5.9641e-09
8.8600e+03,5.9633e-09
8.8700e+03,5.9665e-09
8.8800e+03,5.9720e-09
8.8900e+03,5.9778e-09
8.9000e+03,5.9824e-09
8.9100e+03,5.9852e-09
8.9200e+03,5.9854e-09
8.9300e+03,5.9826e-09
8.9400e+03,5.9777e-09
8.9500e+03,5.9725e-09
8.9600e+03,5.9683e-09
8.9700e+03,5.9653e-09
8.9800e+03,5.9627e-09
8.9900e+03,5.9601e-09
9.0000e+03,5.9579e-09
9.0100e+03,5.9562e-09
9.0200e+03,5.9550e-09
9.0300e+03,5.9539e-09
9.0400e+03,5.9533e-09
9.0500e+03,5.9538e-09
9.0600e+03,5.9560e-09
9.0700e+03,5.9593e-09
