# Time , Side-Flux
0.0000e+00,0.0000e+00
1.0000e+01,1.7585e-12
2.0000e+01,3.5062e-12
3.0000e+01,5.2330e-12
4.0000e+01,6.9289e-12
5.0000e+01,8.5849e-12
6.0000e+01,1.0193e-11
7.0000e+01,1.1746e-11
8.0000e+01,1.3239e-11
9.0000e+01,1.4667e-11
1.0000e+02,1.6027e-11
1.1000e+02,1.7317e-11
1.2000e+02,1.8536e-11
1.3000e+02,1.9684e-11
1.4000e+02,2.0762e-11
1.5000e+02,2.1771e-11
1.6000e+02,2.2714e-11
1.7000e+02,2.3593e-11
1.8000e+02,2.4411e-11
1.9000e+02,2.5171e-11
2.0000e+02,2.5875e-11
2.1000e+02,2.6528e-11
2.2000e+02,2.7133e-11
2.3000e+02,2.7693e-11
2.4000e+02,2.8210e-11
2.5000e+02,2.8688e-11
2.6000e+02,2.9129e-11
2.7000e+02,2.9537e-11
2.8000e+02,2.9913e-11
2.9000e+02,3.0260e-11
3.0000e+02,3.0580e-11
3.1000e+02,3.0876e-11
3.2000e+02,3.1148e-11
3.3000e+02,3.1400e-11
3.4000e+02,3.1631e-11
3.5000e+02,3.1845e-11
3.6000e+02,3.2042e-11
3.7000e+02,3.2225e-11
3.8000e+02,3.2393e-11
3.9000e+02,3.2548e-11
4.0000e+02,3.2691e-11
4.1000e+02,3.2824e-11
4.2000e+02,3.2947e-11
4.3000e+02,3.3061e-11
4.4000e+02,3.3167e-11
4.5000e+02,3.3266e-11
4.6000e+02,3.3358e-11
4.7000e+02,3.3445e-11
4.8000e+02,3.3526e-11
4.9000e+02,3.3603e-11
5.0000e+02,3.3675e-11
5.1000e+02,3.3743e-11
5.2000e+02,3.3809e-11
5.3000e+02,3.3871e-11
5.4000e+02,3.3931e-11
5.5000e+02,3.3988e-11
5.6000e+02,3.4044e-11
5.7000e+02,3.4097e-11
5.8000e+02,3.4149e-11
5.9000e+02,3.4200e-11
6.0000e+02,3.4249e-11
6.1000e+02,3.4297e-11
6.2000e+02,3.4344e-11
6.3000e+02,3.4391e-11
6.4000e+02,3.4437e-11
6.5000e+02,3.4483e-11
6.6000e+02,3.4529e-11
6.7000e+02,3.4574e-11
6.8000e+02,3.4620e-11
6.9000e+02,3.4667e-11
7.0000e+02,3.4713e-11
7.1000e+02,3.4760e-11
7.2000e+02,3.4807e-11
7.3000e+02,3.4855e-11
7.4000e+02,3.4902e-11
7.5000e+02,3.4950e-11
7.6000e+02,3.4996e-11
7.7000e+02,3.5042e-11
7.8000e+02,3.5086e-11
7.9000e+02,3.5128e-11
8.0000e+02,3.5168e-11
8.1000e+02,3.5206e-11
8.2000e+02,3.5240e-11
8.3000e+02,3.5270e-11
8.4000e+02,3.5297e-11
8.5000e+02,3.5320e-11
8.6000e+02,3.5339e-11
8.7000e+02,3.5353e-11
8.8000e+02,3.5363e-11
8.9000e+02,3.5369e-11
9.0000e+02,3.5372e-11
9.1000e+02,3.5371e-11
9.2000e+02,3.5368e-11
9.3000e+02,3.5362e-11
9.4000e+02,3.5355e-11
9.5000e+02,3.5347e-11
9.6000e+02,3.5339e-11
9.7000e+02,3.5332e-11
9.8000e+02,3.5326e-11
9.9000e+02,3.5322e-11
1.0000e+03,3.5322e-11
1.0100e+03,3.5324e-11
1.0200e+03,3.5331e-11
1.0300e+03,3.5342e-11
1.0400e+03,3.5357e-11
1.0500e+03,3.5378e-11
1.0600e+03,3.5404e-11
1.0700e+03,3.5435e-11
1.0800e+03,3.5472e-11
1.0900e+03,3.5513e-11
1.1000e+03,3.5559e-11
1.1100e+03,3.5609e-11
1.1200e+03,3.5664e-11
1.1300e+03,3.5721e-11
1.1400e+03,3.5782e-11
1.1500e+03,3.5845e-11
1.1600e+03,3.5910e-11
1.1700e+03,3.5977e-11
1.1800e+03,3.6044e-11
1.1900e+03,3.6112e-11
1.2000e+03,3.6180e-11
1.2100e+03,3.6247e-11
1.2200e+03,3.6313e-11
1.2300e+03,3.6378e-11
1.2400e+03,3.6441e-11
1.2500e+03,3.6502e-11
1.2600e+03,3.6560e-11
1.2700e+03,3.6616e-11
1.2800e+03,3.6669e-11
1.2900e+03,3.6719e-11
1.3000e+03,3.6766e-11
1.3100e+03,3.6809e-11
1.3200e+03,3.6849e-11
1.3300e+03,3.6886e-11
1.3400e+03,3.6919e-11
1.3500e+03,3.6948e-11
1.3600e+03,3.6974e-11
1.3700e+03,3.6997e-11
1.3800e+03,3.7017e-11
1.3900e+03,3.7034e-11
1.4000e+03,3.7048e-11
1.4100e+03,3.7059e-11
1.4200e+03,3.7068e-11
1.4300e+03,3.7075e-11
1.4400e+03,3.7079e-11
1.4500e+03,3.7082e-11
1.4600e+03,3.7083e-11
1.4700e+03,3.7082e-11
1.4800e+03,3.7080e-11
1.4900e+03,3.7075e-11
1.5000e+03,3.7070e-11
1.5100e+03,3.7063e-11
1.5200e+03,3.7055e-11
1.5300e+03,3.7045e-11
1.5400e+03,3.7034e-11
1.5500e+03,3.7021e-11
1.5600e+03,3.7008e-11
1.5700e+03,3.6992e-11
1.5800e+03,3.6976e-11
1.5900e+03,3.6958e-11
1.6000e+03,3.6939e-11
1.6100e+03,3.6919e-11
1.6200e+03,3.6897e-11
1.6300e+03,3.6874e-11
1.6400e+03,3.6851e-11
1.6500e+03,3.6826e-11
1.6600e+03,3.6800e-11
1.6700e+03,3.6774e-11
1.6800e+03,3.6747e-11
1.6900e+03,3.6720e-11
1.7000e+03,3.6692e-11
1.7100e+03,3.6664e-11
1.7200e+03,3.6636e-11
1.7300e+03,3.6608e-11
1.7400e+03,3.6581e-11
1.7500e+03,3.6553e-11
1.7600e+03,3.6526e-11
1.7700e+03,3.6500e-11
1.7800e+03,3.6474e-11
1.7900e+03,3.6449e-11
1.8000e+03,3.6424e-11
1.8100e+03,3.6399e-11
1.8200e+03,3.6375e-11
1.8300e+03,3.6351e-11
1.8400e+03,3.6328e-11
1.8500e+03,3.6304e-11
1.8600e+03,3.6281e-11
1.8700e+03,3.6257e-11
1.8800e+03,3.6234e-11
1.8900e+03,3.6210e-11
1.9000e+03,3.6186e-11
1.9100e+03,3.6161e-11
1.9200e+03,3.6136e-11
1.9300e+03,3.6111e-11
1.9400e+03,3.6085e-11
1.9500e+03,3.6059e-11
1.9600e+03,3.6033e-11
1.9700e+03,3.6006e-11
1.9800e+03,3.5979e-11
1.9900e+03,3.5953e-11
2.0000e+03,3.5926e-11
2.0100e+03,3.5900e-11
2.0200e+03,3.5874e-11
2.0300e+03,3.5849e-11
2.0400e+03,3.5825e-11
2.0500e+03,3.5802e-11
2.0600e+03,3.5780e-11
2.0700e+03,3.5760e-11
2.0800e+03,3.5741e-11
2.0900e+03,3.5724e-11
2.1000e+03,3.5710e-11
2.1100e+03,3.5697e-11
2.1200e+03,3.5687e-11
2.1300e+03,3.5680e-11
2.1400e+03,3.5675e-11
2.1500e+03,3.5672e-11
2.1600e+03,3.5673e-11
2.1700e+03,3.5675e-11
2.1800e+03,3.5680e-11
2.1900e+03,3.5688e-11
2.2000e+03,3.5697e-11
2.2100e+03,3.5708e-11
2.2200e+03,3.5722e-11
2.2300e+03,3.5736e-11
2.2400e+03,3.5752e-11
2.2500e+03,3.5770e-11
2.2600e+03,3.5788e-11
2.2700e+03,3.5806e-11
2.2800e+03,3.5826e-11
2.2900e+03,3.5845e-11
2.3000e+03,3.5865e-11
2.3100e+03,3.5884e-11
2.3200e+03,3.5904e-11
2.3300e+03,3.5923e-11
2.3400e+03,3.5942e-11
2.3500e+03,3.5960e-11
2.3600e+03,3.5978e-11
2.3700e+03,3.5995e-11
2.3800e+03,3.6012e-11
2.3900e+03,3.6028e-11
2.4000e+03,3.6043e-11
2.4100e+03,3.6058e-11
2.4200e+03,3.6072e-11
2.4300e+03,3.6085e-11
2.4400e+03,3.6098e-11
2.4500e+03,3.6109e-11
2.4600e+03,3.6121e-11
2.4700e+03,3.6131e-11
2.4800e+03,3.6141e-11
2.4900e+03,3.6150e-11
2.5000e+03,3.6159e-11
2.5100e+03,3.6166e-11
2.5200e+03,3.6174e-11
2.5300e+03,3.6180e-11
2.5400e+03,3.6186e-11
2.5500e+03,3.6191e-11
2.5600e+03,3.6196e-11
2.5700e+03,3.6200e-11
2.5800e+03,3.6204e-11
2.5900e+03,3.6207e-11
2.6000e+03,3.6209e-11
2.6100e+03,3.6211e-11
2.6200e+03,3.6212e-11
2.6300e+03,3.6213e-11
2.6400e+03,3.6213e-11
2.6500e+03,3.6213e-11
2.6600e+03,3.6212e-11
2.6700e+03,3.6211e-11
2.6800e+03,3.6210e-11
2.6900e+03,3.6209e-11
2.7000e+03,3.6208e-11
2.7100e+03,3.6207e-11
2.7200e+03,3.6206e-11
2.7300e+03,3.6205e-11
2.7400e+03,3.6205e-11
2.7500e+03,3.6205e-11
2.7600e+03,3.6206e-11
2.7700e+03,3.6207e-11
2.7800e+03,3.6209e-11
2.7900e+03,3.6212e-11
2.8000e+03,3.6216e-11
2.8100e+03,3.6221e-11
2.8200e+03,3.6227e-11
2.8300e+03,3.6234e-11
2.8400e+03,3.6242e-11
2.8500e+03,3.6252e-11
2.8600e+03,3.6263e-11
2.8700e+03,3.6275e-11
2.8800e+03,3.6289e-11
2.8900e+03,3.6304e-11
2.9000e+03,3.6320e-11
2.9100e+03,3.6337e-11
2.9200e+03,3.6356e-11
2.9300e+03,3.6376e-11
2.9400e+03,3.6397e-11
2.9500e+03,3.6419e-11
2.9600e+03,3.6441e-11
2.9700e+03,3.6464e-11
2.9800e+03,3.6488e-11
2.9900e+03,3.6512e-11
3.0000e+03,3.6536e-11
3.0100e+03,3.6560e-11
3.0200e+03,3.6583e-11
3.0300e+03,3.6607e-11
3.0400e+03,3.6630e-11
3.0500e+03,3.6653e-11
3.0600e+03,3.6676e-11
3.0700e+03,3.6698e-11
3.0800e+03,3.6719e-11
3.0900e+03,3.6740e-11
3.1000e+03,3.6761e-11
3.1100e+03,3.6781e-11
3.1200e+03,3.6801e-11
3.1300e+03,3.6820e-11
3.1400e+03,3.6840e-11
3.1500e+03,3.6859e-11
3.1600e+03,3.6878e-11
3.1700e+03,3.6897e-11
3.1800e+03,3.6917e-11
3.1900e+03,3.6936e-11
3.2000e+03,3.6956e-11
3.2100e+03,3.6976e-11
3.2200e+03,3.6996e-11
3.2300e+03,3.7016e-11
3.2400e+03,3.7036e-11
3.2500e+03,3.7056e-11
3.2600e+03,3.7076e-11
3.2700e+03,3.7095e-11
3.2800e+03,3.7115e-11
3.2900e+03,3.7133e-11
3.3000e+03,3.7152e-11
3.3100e+03,3.7170e-11
3.3200e+03,3.7187e-11
3.3300e+03,3.7204e-11
3.3400e+03,3.7220e-11
3.3500e+03,3.7236e-11
3.3600e+03,3.7251e-11
3.3700e+03,3.7265e-11
3.3800e+03,3.7278e-11
3.3900e+03,3.7291e-11
3.4000e+03,3.7303e-11
3.4100e+03,3.7314e-11
3.4200e+03,3.7324e-11
3.4300e+03,3.7334e-11
3.4400e+03,3.7344e-11
3.4500e+03,3.7352e-11
3.4600e+03,3.7360e-11
3.4700e+03,3.7367e-11
3.4800e+03,3.7374e-11
3.4900e+03,3.7380e-11
3.5000e+03,3.7385e-11
3.5100e+03,3.7390e-11
3.5200e+03,3.7394e-11
3.5300e+03,3.7397e-11
3.5400e+03,3.7400e-11
3.5500e+03,3.7402e-11
3.5600e+03,3.7404e-11
3.5700e+03,3.7405e-11
3.5800e+03,3.7405e-11
3.5900e+03,3.7405e-11
3.6000e+03,3.7404e-11
3.6100e+03,3.7403e-11
3.6200e+03,3.7401e-11
3.6300e+03,3.7399e-11
3.6400e+03,3.7396e-11
3.6500e+03,3.7392e-11
3.6600e+03,3.7388e-11
3.6700e+03,3.7384e-11
3.6800e+03,3.7379e-11
3.6900e+03,3.7373e-11
3.7000e+03,3.7367e-11
3.7100e+03,3.7361e-11
3.7200e+03,3.7353e-11
3.7300e+03,3.7346e-11
3.7400e+03,3.7338e-11
3.7500e+03,3.7329e-11
3.7600e+03,3.7321e-11
3.7700e+03,3.7311e-11
3.7800e+03,3.7302e-11
3.7900e+03,3.7292e-11
3.8000e+03,3.7282e-11
3.8100e+03,3.7272e-11
3.8200e+03,3.7262e-11
3.8300e+03,3.7251e-11
3.8400e+03,3.7241e-11
3.8500e+03,3.7231e-11
3.8600e+03,3.7221e-11
3.8700e+03,3.7212e-11
3.8800e+03,3.7203e-11
3.8900e+03,3.7195e-11
3.9000e+03,3.7187e-11
3.9100e+03,3.7180e-11
3.9200e+03,3.7173e-11
3.9300e+03,3.7168e-11
3.9400e+03,3.7163e-11
3.9500e+03,3.7159e-11
3.9600e+03,3.7156e-11
3.9700e+03,3.7153e-11
3.9800e+03,3.7151e-11
3.9900e+03,3.7149e-11
4.0000e+03,3.7148e-11
4.0100e+03,3.7148e-11
4.0200e+03,3.7147e-11
4.0300e+03,3.7147e-11
4.0400e+03,3.7147e-11
4.0500e+03,3.7148e-11
4.0600e+03,3.7148e-11
4.0700e+03,3.7149e-11
4.0800e+03,3.7150e-11
4.0900e+03,3.7150e-11
4.1000e+03,3.7151e-11
4.1100e+03,3.7151e-11
4.1200e+03,3.7152e-11
4.1300e+03,3.7152e-11
4.1400e+03,3.7153e-11
4.1500e+03,3.7153e-11
4.1600e+03,3.7154e-11
4.1700e+03,3.7154e-11
4.1800e+03,3.7154e-11
4.1900e+03,3.7154e-11
4.2000e+03,3.7154e-11
4.2100e+03,3.7154e-11
4.2200e+03,3.7154e-11
4.2300e+03,3.7154e-11
4.2400e+03,3.7154e-11
4.2500e+03,3.7154e-11
4.2600e+03,3.7154e-11
4.2700e+03,3.7154e-11
4.2800e+03,3.7154e-11
4.2900e+03,3.7154e-11
4.3000e+03,3.7154e-11
4.3100e+03,3.7154e-11
4.3200e+03,3.7154e-11
4.3300e+03,3.7154e-11
4.3400e+03,3.7154e-11
4.3500e+03,3.7154e-11
4.3600e+03,3.7154e-11
4.3700e+03,3.7154e-11
4.3800e+03,3.7154e-11
4.3900e+03,3.7154e-11
4.4000e+03,3.7154e-11
4.4100e+03,3.7154e-11
4.4200e+03,3.7154e-11
4.4300e+03,3.7154e-11
4.4400e+03,3.7154e-11
4.4500e+03,3.7154e-11
4.4600e+03,3.7154e-11
4.4700e+03,3.7154e-11
4.4800e+03,3.7154e-11
4.4900e+03,3.7154e-11
4.5000e+03,3.7154e-11
4.5100e+03,3.7154e-11
4.5200e+03,3.7154e-11
4.5300e+03,3.7154e-11
4.5400e+03,3.7154e-11
4.5500e+03,3.7154e-11
4.5600e+03,3.7154e-11
4.5700e+03,3.7154e-11
4.5800e+03,3.7154e-11
4.5900e+03,3.7154e-11
4.6000e+03,3.7154e-11
4.6100e+03,3.7154e-11
4.6200e+03,3.7154e-11
4.6300e+03,3.7154e-11
4.6400e+03,3.7153e-11
4.6500e+03,3.7153e-11
4.6600e+03,3.7153e-11
4.6700e+03,3.7153e-11
4.6800e+03,3.7152e-11
4.6900e+03,3.7152e-11
4.7000e+03,3.7151e-11
4.7100e+03,3.7150e-11
4.7200e+03,3.7149e-11
4.7300e+03,3.7147e-11
4.7400e+03,3.7146e-11
4.7500e+03,3.7144e-11
4.7600e+03,3.7141e-11
4.7700e+03,3.7138e-11
4.7800e+03,3.7135e-11
4.7900e+03,3.7131e-11
4.8000e+03,3.7126e-11
4.8100e+03,3.7122e-11
4.8200e+03,3.7116e-11
4.8300e+03,3.7111e-11
4.8400e+03,3.7106e-11
4.8500e+03,3.7100e-11
4.8600e+03,3.7095e-11
4.8700e+03,3.7090e-11
4.8800e+03,3.7086e-11
4.8900e+03,3.7083e-11
4.9000e+03,3.7081e-11
4.9100e+03,3.7080e-11
4.9200e+03,3.7082e-11
4.9300e+03,3.7085e-11
4.9400e+03,3.7090e-11
4.9500e+03,3.7097e-11
4.9600e+03,3.7107e-11
4.9700e+03,3.7119e-11
4.9800e+03,3.7133e-11
4.9900e+03,3.7149e-11
5.0000e+03,3.7167e-11
5.0100e+03,3.7187e-11
5.0200e+03,3.7207e-11
5.0300e+03,3.7228e-11
5.0400e+03,3.7249e-11
5.0500e+03,3.7270e-11
5.0600e+03,3.7290e-11
5.0700e+03,3.7309e-11
5.0800e+03,3.7325e-11
5.0900e+03,3.7340e-11
5.1000e+03,3.7352e-11
5.1100e+03,3.7362e-11
5.1200e+03,3.7368e-11
5.1300e+03,3.7373e-11
5.1400e+03,3.7374e-11
5.1500e+03,3.7374e-11
5.1600e+03,3.7372e-11
5.1700e+03,3.7368e-11
5.1800e+03,3.7364e-11
5.1900e+03,3.7360e-11
5.2000e+03,3.7357e-11
5.2100e+03,3.7354e-11
5.2200e+03,3.7354e-11
5.2300e+03,3.7355e-11
5.2400e+03,3.7359e-11
5.2500e+03,3.7366e-11
5.2600e+03,3.7376e-11
5.2700e+03,3.7388e-11
5.2800e+03,3.7404e-11
5.2900e+03,3.7422e-11
5.3000e+03,3.7443e-11
5.3100e+03,3.7465e-11
5.3200e+03,3.7489e-11
5.3300e+03,3.7513e-11
5.3400e+03,3.7538e-11
5.3500e+03,3.7563e-11
5.3600e+03,3.7586e-11
5.3700e+03,3.7609e-11
5.3800e+03,3.7629e-11
5.3900e+03,3.7646e-11
5.4000e+03,3.7661e-11
5.4100e+03,3.7673e-11
5.4200e+03,3.7682e-11
5.4300e+03,3.7687e-11
5.4400e+03,3.7688e-11
5.4500e+03,3.7687e-11
5.4600e+03,3.7682e-11
5.4700e+03,3.7675e-11
5.4800e+03,3.7665e-11
5.4900e+03,3.7654e-11
5.5000e+03,3.7641e-11
5.5100e+03,3.7627e-11
5.5200e+03,3.7613e-11
5.5300e+03,3.7598e-11
5.5400e+03,3.7585e-11
5.5500e+03,3.7572e-11
5.5600e+03,3.7560e-11
5.5700e+03,3.7550e-11
5.5800e+03,3.7542e-11
5.5900e+03,3.7536e-11
5.6000e+03,3.7532e-11
5.6100e+03,3.7530e-11
5.6200e+03,3.7531e-11
5.6300e+03,3.7533e-11
5.6400e+03,3.7537e-11
5.6500e+03,3.7543e-11
5.6600e+03,3.7551e-11
5.6700e+03,3.7560e-11
5.6800e+03,3.7570e-11
5.6900e+03,3.7581e-11
5.7000e+03,3.7593e-11
5.7100e+03,3.7605e-11
5.7200e+03,3.7616e-11
5.7300e+03,3.7628e-11
5.7400e+03,3.7638e-11
5.7500e+03,3.7647e-11
5.7600e+03,3.7655e-11
5.7700e+03,3.7661e-11
5.7800e+03,3.7664e-11
5.7900e+03,3.7665e-11
5.8000e+03,3.7663e-11
5.8100e+03,3.7658e-11
5.8200e+03,3.7650e-11
5.8300e+03,3.7638e-11
5.8400e+03,3.7624e-11
5.8500e+03,3.7606e-11
5.8600e+03,3.7586e-11
5.8700e+03,3.7563e-11
5.8800e+03,3.7537e-11
5.8900e+03,3.7510e-11
5.9000e+03,3.7481e-11
5.9100e+03,3.7452e-11
5.9200e+03,3.7421e-11
5.9300e+03,3.7391e-11
5.9400e+03,3.7362e-11
5.9500e+03,3.7333e-11
5.9600e+03,3.7307e-11
5.9700e+03,3.7282e-11
5.9800e+03,3.7259e-11
5.9900e+03,3.7239e-11
6.0000e+03,3.7222e-11
6.0100e+03,3.7208e-11
6.0200e+03,3.7197e-11
6.0300e+03,3.7188e-11
6.0400e+03,3.7182e-11
6.0500e+03,3.7179e-11
6.0600e+03,3.7178e-11
6.0700e+03,3.7178e-11
6.0800e+03,3.7180e-11
6.0900e+03,3.7182e-11
6.1000e+03,3.7185e-11
6.1100e+03,3.7187e-11
6.1200e+03,3.7188e-11
6.1300e+03,3.7187e-11
6.1400e+03,3.7185e-11
6.1500e+03,3.7180e-11
6.1600e+03,3.7173e-11
6.1700e+03,3.7163e-11
6.1800e+03,3.7150e-11
6.1900e+03,3.7133e-11
6.2000e+03,3.7114e-11
6.2100e+03,3.7093e-11
6.2200e+03,3.7069e-11
6.2300e+03,3.7043e-11
6.2400e+03,3.7015e-11
6.2500e+03,3.6987e-11
6.2600e+03,3.6958e-11
6.2700e+03,3.6930e-11
6.2800e+03,3.6902e-11
6.2900e+03,3.6876e-11
6.3000e+03,3.6852e-11
6.3100e+03,3.6831e-11
6.3200e+03,3.6813e-11
6.3300e+03,3.6799e-11
6.3400e+03,3.6788e-11
6.3500e+03,3.6782e-11
6.3600e+03,3.6781e-11
6.3700e+03,3.6785e-11
6.3800e+03,3.6793e-11
6.3900e+03,3.6806e-11
6.4000e+03,3.6823e-11
6.4100e+03,3.6846e-11
6.4200e+03,3.6872e-11
6.4300e+03,3.6902e-11
6.4400e+03,3.6935e-11
6.4500e+03,3.6972e-11
6.4600e+03,3.7011e-11
6.4700e+03,3.7052e-11
6.4800e+03,3.7095e-11
6.4900e+03,3.7139e-11
6.5000e+03,3.7183e-11
6.5100e+03,3.7227e-11
6.5200e+03,3.7270e-11
6.5300e+03,3.7312e-11
6.5400e+03,3.7353e-11
6.5500e+03,3.7391e-11
6.5600e+03,3.7427e-11
6.5700e+03,3.7461e-11
6.5800e+03,3.7492e-11
6.5900e+03,3.7519e-11
6.6000e+03,3.7544e-11
6.6100e+03,3.7565e-11
6.6200e+03,3.7582e-11
6.6300e+03,3.7597e-11
6.6400e+03,3.7607e-11
6.6500e+03,3.7615e-11
6.6600e+03,3.7619e-11
6.6700e+03,3.7620e-11
6.6800e+03,3.7618e-11
6.6900e+03,3.7613e-11
6.7000e+03,3.7605e-11
6.7100e+03,3.7594e-11
6.7200e+03,3.7580e-11
6.7300e+03,3.7563e-11
6.7400e+03,3.7544e-11
6.7500e+03,3.7522e-11
6.7600e+03,3.7497e-11
6.7700e+03,3.7470e-11
6.7800e+03,3.7441e-11
6.7900e+03,3.7410e-11
6.8000e+03,3.7378e-11
6.8100e+03,3.7343e-11
6.8200e+03,3.7308e-11
6.8300e+03,3.7272e-11
6.8400e+03,3.7235e-11
6.8500e+03,3.7198e-11
6.8600e+03,3.7161e-11
6.8700e+03,3.7125e-11
6.8800e+03,3.7090e-11
6.8900e+03,3.7057e-11
6.9000e+03,3.7025e-11
6.9100e+03,3.6996e-11
6.9200e+03,3.6970e-11
6.9300e+03,3.6947e-11
6.9400e+03,3.6928e-11
6.9500e+03,3.6912e-11
6.9600e+03,3.6901e-11
6.9700e+03,3.6895e-11
6.9800e+03,3.6894e-11
6.9900e+03,3.6898e-11
7.0000e+03,3.6908e-11
7.0100e+03,3.6923e-11
7.0200e+03,3.6944e-11
7.0300e+03,3.6971e-11
7.0400e+03,3.7005e-11
7.0500e+03,3.7044e-11
7.0600e+03,3.7090e-11
7.0700e+03,3.7141e-11
7.0800e+03,3.7199e-11
7.0900e+03,3.7262e-11
7.1000e+03,3.7331e-11
7.1100e+03,3.7406e-11
7.1200e+03,3.7485e-11
7.1300e+03,3.7569e-11
7.1400e+03,3.7658e-11
7.1500e+03,3.7750e-11
7.1600e+03,3.7846e-11
7.1700e+03,3.7945e-11
7.1800e+03,3.8046e-11
7.1900e+03,3.8149e-11
7.2000e+03,3.8254e-11
7.2100e+03,3.8359e-11
7.2200e+03,3.8465e-11
7.2300e+03,3.8570e-11
7.2400e+03,3.8675e-11
7.2500e+03,3.8779e-11
7.2600e+03,3.8881e-11
7.2700e+03,3.8982e-11
7.2800e+03,3.9080e-11
7.2900e+03,3.9176e-11
7.3000e+03,3.9269e-11
7.3100e+03,3.9359e-11
7.3200e+03,3.9445e-11
7.3300e+03,3.9528e-11
7.3400e+03,3.9608e-11
7.3500e+03,3.9683e-11
7.3600e+03,3.9755e-11
7.3700e+03,3.9823e-11
7.3800e+03,3.9887e-11
7.3900e+03,3.9947e-11
7.4000e+03,4.0003e-11
7.4100e+03,4.0054e-11
7.4200e+03,4.0102e-11
7.4300e+03,4.0145e-11
7.4400e+03,4.0185e-11
7.4500e+03,4.0220e-11
7.4600e+03,4.0251e-11
7.4700e+03,4.0278e-11
7.4800e+03,4.0301e-11
7.4900e+03,4.0321e-11
7.5000e+03,4.0336e-11
7.5100e+03,4.0349e-11
7.5200e+03,4.0357e-11
7.5300e+03,4.0363e-11
7.5400e+03,4.0365e-11
7.5500e+03,4.0365e-11
7.5600e+03,4.0362e-11
7.5700e+03,4.0357e-11
7.5800e+03,4.0349e-11
7.5900e+03,4.0340e-11
7.6000e+03,4.0329e-11
7.6100e+03,4.0316e-11
7.6200e+03,4.0302e-11
7.6300e+03,4.0287e-11
7.6400e+03,4.0272e-11
7.6500e+03,4.0255e-11
7.6600e+03,4.0238e-11
7.6700e+03,4.0221e-11
7.6800e+03,4.0203e-11
7.6900e+03,4.0185e-11
7.7000e+03,4.0168e-11
7.7100e+03,4.0150e-11
7.7200e+03,4.0134e-11
7.7300e+03,4.0117e-11
7.7400e+03,4.0101e-11
7.7500e+03,4.0086e-11
7.7600e+03,4.0072e-11
7.7700e+03,4.0059e-11
7.7800e+03,4.0047e-11
7.7900e+03,4.0036e-11
7.8000e+03,4.0027e-11
7.8100e+03,4.0019e-11
7.8200e+03,4.0014e-11
7.8300e+03,4.0010e-11
7.8400e+03,4.0009e-11
7.8500e+03,4.0010e-11
7.8600e+03,4.0013e-11
7.8700e+03,4.0019e-11
7.8800e+03,4.0029e-11
7.8900e+03,4.0041e-11
7.9000e+03,4.0056e-11
7.9100e+03,4.0074e-11
7.9200e+03,4.0095e-11
7.9300e+03,4.0119e-11
7.9400e+03,4.0146e-11
7.9500e+03,4.0176e-11
7.9600e+03,4.0209e-11
7.9700e+03,4.0245e-11
7.9800e+03,4.0283e-11
7.9900e+03,4.0323e-11
8.0000e+03,4.0365e-11
8.0100e+03,4.0409e-11
8.0200e+03,4.0455e-11
8.0300e+03,4.0502e-11
8.0400e+03,4.0549e-11
8.0500e+03,4.0597e-11
8.0600e+03,4.0645e-11
8.0700e+03,4.0693e-11
8.0800e+03,4.0739e-11
8.0900e+03,4.0785e-11
8.1000e+03,4.0828e-11
8.1100e+03,4.0870e-11
8.1200e+03,4.0909e-11
8.1300e+03,4.0944e-11
8.1400e+03,4.0976e-11
8.1500e+03,4.1004e-11
8.1600e+03,4.1028e-11
8.1700e+03,4.1046e-11
8.1800e+03,4.1060e-11
8.1900e+03,4.1068e-11
8.2000e+03,4.1070e-11
8.2100e+03,4.1065e-11
8.2200e+03,4.1054e-11
8.2300e+03,4.1036e-11
8.2400e+03,4.1011e-11
8.2500e+03,4.0979e-11
8.2600e+03,4.0939e-11
8.2700e+03,4.0893e-11
8.2800e+03,4.0839e-11
8.2900e+03,4.0778e-11
8.3000e+03,4.0711e-11
8.3100e+03,4.0637e-11
8.3200e+03,4.0557e-11
8.3300e+03,4.0472e-11
8.3400e+03,4.0382e-11
8.3500e+03,4.0287e-11
8.3600e+03,4.0188e-11
8.3700e+03,4.0085e-11
8.3800e+03,3.9979e-11
8.3900e+03,3.9871e-11
8.4000e+03,3.9761e-11
8.4100e+03,3.9649e-11
8.4200e+03,3.9537e-11
8.4300e+03,3.9423e-11
8.4400e+03,3.9309e-11
8.4500e+03,3.9196e-11
8.4600e+03,3.9083e-11
8.4700e+03,3.8971e-11
8.4800e+03,3.8861e-11
8.4900e+03,3.8752e-11
8.5000e+03,3.8646e-11
8.5100e+03,3.8543e-11
8.5200e+03,3.8443e-11
8.5300e+03,3.8347e-11
8.5400e+03,3.8254e-11
8.5500e+03,3.8166e-11
8.5600e+03,3.8082e-11
8.5700e+03,3.8003e-11
8.5800e+03,3.7929e-11
8.5900e+03,3.7859e-11
8.6000e+03,3.7795e-11
8.6100e+03,3.7734e-11
8.6200e+03,3.7679e-11
8.6300e+03,3.7628e-11
8.6400e+03,3.7581e-11
8.6500e+03,3.7539e-11
8.6600e+03,3.7500e-11
8.6700e+03,3.7465e-11
8.6800e+03,3.7434e-11
8.6900e+03,3.7407e-11
8.7000e+03,3.7382e-11
8.7100e+03,3.7362e-11
8.7200e+03,3.7344e-11
8.7300e+03,3.7330e-11
8.7400e+03,3.7320e-11
8.7500e+03,3.7312e-11
8.7600e+03,3.7308e-11
8.7700e+03,3.7308e-11
8.7800e+03,3.7312e-11
8.7900e+03,3.7319e-11
8.8000e+03,3.7330e-11
8.8100e+03,3.7345e-11
8.8200e+03,3.7364e-11
8.8300e+03,3.7387e-11
8.8400e+03,3.7415e-11
8.8500e+03,3.7447e-11
8.8600e+03,3.7483e-11
8.8700e+03,3.7523e-11
8.8800e+03,3.7568e-11
8.8900e+03,3.7618e-11
8.9000e+03,3.7672e-11
8.9100e+03,3.7730e-11
8.9200e+03,3.7793e-11
8.9300e+03,3.7861e-11
8.9400e+03,3.7933e-11
8.9500e+03,3.8010e-11
8.9600e+03,3.8092e-11
8.9700e+03,3.8178e-11
8.9800e+03,3.8269e-11
8.9900e+03,3.8365e-11
9.0000e+03,3.8464e-11
9.0100e+03,3.8569e-11
9.0200e+03,3.8677e-11
9.0300e+03,3.8789e-11
9.0400e+03,3.8905e-11
9.0500e+03,3.9024e-11
9.0600e+03,3.9145e-11
9.0700e+03,3.9269e-11
