# Time , Side-Flux
0.0000e+00,0.0000e+00
1.0000e+01,3.3373e-07
2.0000e+01,6.2129e-07
3.0000e+01,8.3230e-07
4.0000e+01,9.5958e-07
5.0000e+01,1.0160e-06
6.0000e+01,1.0250e-06
7.0000e+01,1.0103e-06
8.0000e+01,9.9006e-07
9.0000e+01,9.7421e-07
1.0000e+02,9.6602e-07
1.1000e+02,9.6450e-07
1.2000e+02,9.6704e-07
1.3000e+02,9.7107e-07
1.4000e+02,9.7492e-07
1.5000e+02,9.7783e-07
1.6000e+02,9.7975e-07
1.7000e+02,9.8094e-07
1.8000e+02,9.8173e-07
1.9000e+02,9.8236e-07
2.0000e+02,9.8295e-07
2.1000e+02,9.8353e-07
2.2000e+02,9.8411e-07
2.3000e+02,9.8463e-07
2.4000e+02,9.8507e-07
2.5000e+02,9.8542e-07
2.6000e+02,9.8567e-07
2.7000e+02,9.8583e-07
2.8000e+02,9.8595e-07
2.9000e+02,9.8605e-07
3.0000e+02,9.8616e-07
3.1000e+02,9.8630e-07
3.2000e+02,9.8648e-07
3.3000e+02,9.8669e-07
3.4000e+02,9.8694e-07
3.5000e+02,9.8721e-07
3.6000e+02,9.8748e-07
3.7000e+02,9.8766e-07
3.8000e+02,9.8774e-07
3.9000e+02,9.8779e-07
4.0000e+02,9.8789e-07
4.1000e+02,9.8805e-07
4.2000e+02,9.8821e-07
4.3000e+02,9.8826e-07
4.4000e+02,9.8814e-07
4.5000e+02,9.8791e-07
4.6000e+02,9.8767e-07
4.7000e+02,9.8753e-07
4.8000e+02,9.8751e-07
4.9000e+02,9.8757e-07
5.0000e+02,9.8765e-07
5.1000e+02,9.8770e-07
5.2000e+02,9.8772e-07
5.3000e+02,9.8774e-07
5.4000e+02,9.8777e-07
5.5000e+02,9.8781e-07
5.6000e+02,9.8781e-07
5.7000e+02,9.8770e-07
5.8000e+02,9.8740e-07
5.9000e+02,9.8684e-07
6.0000e+02,9.8599e-07
6.1000e+02,9.8486e-07
6.2000e+02,9.8351e-07
6.3000e+02,9.8201e-07
6.4000e+02,9.8041e-07
6.5000e+02,9.7875e-07
6.6000e+02,9.7708e-07
6.7000e+02,9.7548e-07
6.8000e+02,9.7411e-07
6.9000e+02,9.7320e-07
7.0000e+02,9.7293e-07
7.1000e+02,9.7337e-07
7.2000e+02,9.7441e-07
7.3000e+02,9.7588e-07
7.4000e+02,9.7761e-07
7.5000e+02,9.7956e-07
7.6000e+02,9.8172e-07
7.7000e+02,9.8398e-07
7.8000e+02,9.8599e-07
7.9000e+02,9.8716e-07
8.0000e+02,9.8687e-07
8.1000e+02,9.8483e-07
8.2000e+02,9.8140e-07
8.3000e+02,9.7757e-07
8.4000e+02,9.7472e-07
8.5000e+02,9.7399e-07
8.6000e+02,9.7577e-07
8.7000e+02,9.7942e-07
8.8000e+02,9.8352e-07
8.9000e+02,9.8636e-07
9.0000e+02,9.8655e-07
9.1000e+02,9.8349e-07
9.2000e+02,9.7752e-07
9.3000e+02,9.6988e-07
9.4000e+02,9.6236e-07
9.5000e+02,9.5687e-07
9.6000e+02,9.5490e-07
9.7000e+02,9.5715e-07
9.8000e+02,9.6338e-07
9.9000e+02,9.7232e-07
1.0000e+03,9.8189e-07
1.0100e+03,9.8952e-07
1.0200e+03,9.9272e-07
1.0300e+03,9.8985e-07
1.0400e+03,9.8078e-07
1.0500e+03,9.6709e-07
1.0600e+03,9.5167e-07
1.0700e+03,9.3781e-07
1.0800e+03,9.2833e-07
1.0900e+03,9.2490e-07
1.1000e+03,9.2786e-07
1.1100e+03,9.3624e-07
1.1200e+03,9.4811e-07
1.1300e+03,9.6093e-07
1.1400e+03,9.7219e-07
1.1500e+03,9.8000e-07
1.1600e+03,9.8353e-07
1.1700e+03,9.8304e-07
1.1800e+03,9.7964e-07
1.1900e+03,9.7474e-07
1.2000e+03,9.6961e-07
1.2100e+03,9.6498e-07
1.2200e+03,9.6106e-07
1.2300e+03,9.5770e-07
1.2400e+03,9.5477e-07
1.2500e+03,9.5238e-07
1.2600e+03,9.5098e-07
1.2700e+03,9.5118e-07
1.2800e+03,9.5327e-07
1.2900e+03,9.5700e-07
1.3000e+03,9.6142e-07
1.3100e+03,9.6528e-07
1.3200e+03,9.6749e-07
1.3300e+03,9.6750e-07
1.3400e+03,9.6551e-07
1.3500e+03,9.6236e-07
1.3600e+03,9.5921e-07
1.3700e+03,9.5717e-07
1.3800e+03,9.5682e-07
1.3900e+03,9.5811e-07
1.4000e+03,9.6034e-07
1.4100e+03,9.6259e-07
1.4200e+03,9.6406e-07
1.4300e+03,9.6439e-07
1.4400e+03,9.6365e-07
1.4500e+03,9.6226e-07
1.4600e+03,9.6075e-07
1.4700e+03,9.5958e-07
1.4800e+03,9.5899e-07
1.4900e+03,9.5900e-07
1.5000e+03,9.5942e-07
1.5100e+03,9.5996e-07
1.5200e+03,9.6035e-07
1.5300e+03,9.6041e-07
1.5400e+03,9.6010e-07
1.5500e+03,9.5950e-07
1.5600e+03,9.5882e-07
1.5700e+03,9.5834e-07
1.5800e+03,9.5829e-07
1.5900e+03,9.5876e-07
1.6000e+03,9.5955e-07
1.6100e+03,9.6021e-07
1.6200e+03,9.6012e-07
1.6300e+03,9.5885e-07
1.6400e+03,9.5636e-07
1.6500e+03,9.5325e-07
1.6600e+03,9.5052e-07
1.6700e+03,9.4925e-07
1.6800e+03,9.5005e-07
1.6900e+03,9.5276e-07
1.7000e+03,9.5646e-07
1.7100e+03,9.5986e-07
1.7200e+03,9.6186e-07
1.7300e+03,9.6203e-07
1.7400e+03,9.6062e-07
1.7500e+03,9.5841e-07
1.7600e+03,9.5628e-07
1.7700e+03,9.5479e-07
1.7800e+03,9.5409e-07
1.7900e+03,9.5386e-07
1.8000e+03,9.5364e-07
1.8100e+03,9.5302e-07
1.8200e+03,9.5186e-07
1.8300e+03,9.5034e-07
1.8400e+03,9.4883e-07
1.8500e+03,9.4772e-07
1.8600e+03,9.4724e-07
1.8700e+03,9.4743e-07
1.8800e+03,9.4814e-07
1.8900e+03,9.4917e-07
1.9000e+03,9.5033e-07
1.9100e+03,9.5146e-07
1.9200e+03,9.5246e-07
1.9300e+03,9.5328e-07
1.9400e+03,9.5397e-07
1.9500e+03,9.5463e-07
1.9600e+03,9.5544e-07
1.9700e+03,9.5644e-07
1.9800e+03,9.5743e-07
1.9900e+03,9.5790e-07
2.0000e+03,9.5717e-07
2.0100e+03,9.5467e-07
2.0200e+03,9.5041e-07
2.0300e+03,9.4517e-07
2.0400e+03,9.4033e-07
2.0500e+03,9.3734e-07
2.0600e+03,9.3709e-07
2.0700e+03,9.3950e-07
2.0800e+03,9.4358e-07
2.0900e+03,9.4770e-07
2.1000e+03,9.5024e-07
2.1100e+03,9.5008e-07
2.1200e+03,9.4690e-07
2.1300e+03,9.4123e-07
2.1400e+03,9.3416e-07
2.1500e+03,9.2720e-07
2.1600e+03,9.2184e-07
2.1700e+03,9.1925e-07
2.1800e+03,9.1994e-07
2.1900e+03,9.2370e-07
2.2000e+03,9.2977e-07
2.2100e+03,9.3706e-07
2.2200e+03,9.4440e-07
2.2300e+03,9.5075e-07
2.2400e+03,9.5546e-07
2.2500e+03,9.5839e-07
2.2600e+03,9.5990e-07
2.2700e+03,9.6043e-07
2.2800e+03,9.6017e-07
2.2900e+03,9.5889e-07
2.3000e+03,9.5617e-07
2.3100e+03,9.5184e-07
2.3200e+03,9.4634e-07
2.3300e+03,9.4065e-07
2.3400e+03,9.3599e-07
2.3500e+03,9.3337e-07
2.3600e+03,9.3324e-07
2.3700e+03,9.3528e-07
2.3800e+03,9.3866e-07
2.3900e+03,9.4227e-07
2.4000e+03,9.4518e-07
2.4100e+03,9.4683e-07
2.4200e+03,9.4715e-07
2.4300e+03,9.4643e-07
2.4400e+03,9.4514e-07
2.4500e+03,9.4375e-07
2.4600e+03,9.4254e-07
2.4700e+03,9.4164e-07
2.4800e+03,9.4111e-07
2.4900e+03,9.4099e-07
2.5000e+03,9.4127e-07
2.5100e+03,9.4183e-07
2.5200e+03,9.4246e-07
2.5300e+03,9.4295e-07
2.5400e+03,9.4318e-07
2.5500e+03,9.4314e-07
2.5600e+03,9.4293e-07
2.5700e+03,9.4262e-07
2.5800e+03,9.4223e-07
2.5900e+03,9.4167e-07
2.6000e+03,9.4083e-07
2.6100e+03,9.3966e-07
2.6200e+03,9.3828e-07
2.6300e+03,9.3694e-07
2.6400e+03,9.3596e-07
2.6500e+03,9.3558e-07
2.6600e+03,9.3587e-07
2.6700e+03,9.3670e-07
2.6800e+03,9.3779e-07
2.6900e+03,9.3881e-07
2.7000e+03,9.3948e-07
2.7100e+03,9.3966e-07
2.7200e+03,9.3940e-07
2.7300e+03,9.3901e-07
2.7400e+03,9.3895e-07
2.7500e+03,9.3961e-07
2.7600e+03,9.4102e-07
2.7700e+03,9.4267e-07
2.7800e+03,9.4369e-07
2.7900e+03,9.4324e-07
2.8000e+03,9.4110e-07
2.8100e+03,9.3785e-07
2.8200e+03,9.3462e-07
2.8300e+03,9.3252e-07
2.8400e+03,9.3203e-07
2.8500e+03,9.3286e-07
2.8600e+03,9.3412e-07
2.8700e+03,9.3481e-07
2.8800e+03,9.3416e-07
2.8900e+03,9.3176e-07
2.9000e+03,9.2768e-07
2.9100e+03,9.2262e-07
2.9200e+03,9.1780e-07
2.9300e+03,9.1472e-07
2.9400e+03,9.1458e-07
2.9500e+03,9.1778e-07
2.9600e+03,9.2377e-07
2.9700e+03,9.3117e-07
2.9800e+03,9.3827e-07
2.9900e+03,9.4353e-07
3.0000e+03,9.4613e-07
3.0100e+03,9.4623e-07
3.0200e+03,9.4484e-07
3.0300e+03,9.4321e-07
3.0400e+03,9.4222e-07
3.0500e+03,9.4202e-07
3.0600e+03,9.4196e-07
3.0700e+03,9.4094e-07
3.0800e+03,9.3786e-07
3.0900e+03,9.3220e-07
3.1000e+03,9.2427e-07
3.1100e+03,9.1530e-07
3.1200e+03,9.0694e-07
3.1300e+03,9.0068e-07
3.1400e+03,8.9739e-07
3.1500e+03,8.9718e-07
3.1600e+03,8.9965e-07
3.1700e+03,9.0426e-07
3.1800e+03,9.1045e-07
3.1900e+03,9.1775e-07
3.2000e+03,9.2559e-07
3.2100e+03,9.3321e-07
3.2200e+03,9.3976e-07
3.2300e+03,9.4437e-07
3.2400e+03,9.4641e-07
3.2500e+03,9.4562e-07
3.2600e+03,9.4224e-07
3.2700e+03,9.3695e-07
3.2800e+03,9.3080e-07
3.2900e+03,9.2491e-07
3.3000e+03,9.2025e-07
3.3100e+03,9.1742e-07
3.3200e+03,9.1668e-07
3.3300e+03,9.1796e-07
3.3400e+03,9.2094e-07
3.3500e+03,9.2507e-07
3.3600e+03,9.2963e-07
3.3700e+03,9.3376e-07
3.3800e+03,9.3670e-07
3.3900e+03,9.3797e-07
3.4000e+03,9.3751e-07
3.4100e+03,9.3572e-07
3.4200e+03,9.3335e-07
3.4300e+03,9.3128e-07
3.4400e+03,9.3029e-07
3.4500e+03,9.3079e-07
3.4600e+03,9.3264e-07
3.4700e+03,9.3512e-07
3.4800e+03,9.3725e-07
3.4900e+03,9.3818e-07
3.5000e+03,9.3761e-07
3.5100e+03,9.3594e-07
3.5200e+03,9.3394e-07
3.5300e+03,9.3228e-07
3.5400e+03,9.3123e-07
3.5500e+03,9.3062e-07
3.5600e+03,9.3012e-07
3.5700e+03,9.2949e-07
3.5800e+03,9.2865e-07
3.5900e+03,9.2769e-07
3.6000e+03,9.2674e-07
3.6100e+03,9.2597e-07
3.6200e+03,9.2549e-07
3.6300e+03,9.2535e-07
3.6400e+03,9.2543e-07
3.6500e+03,9.2545e-07
3.6600e+03,9.2504e-07
3.6700e+03,9.2389e-07
3.6800e+03,9.2197e-07
3.6900e+03,9.1965e-07
3.7000e+03,9.1761e-07
3.7100e+03,9.1650e-07
3.7200e+03,9.1671e-07
3.7300e+03,9.1821e-07
3.7400e+03,9.2070e-07
3.7500e+03,9.2377e-07
3.7600e+03,9.2708e-07
3.7700e+03,9.3036e-07
3.7800e+03,9.3334e-07
3.7900e+03,9.3571e-07
3.8000e+03,9.3721e-07
3.8100e+03,9.3767e-07
3.8200e+03,9.3712e-07
3.8300e+03,9.3562e-07
3.8400e+03,9.3319e-07
3.8500e+03,9.2977e-07
3.8600e+03,9.2531e-07
3.8700e+03,9.1983e-07
3.8800e+03,9.1352e-07
3.8900e+03,9.0683e-07
3.9000e+03,9.0049e-07
3.9100e+03,8.9569e-07
3.9200e+03,8.9385e-07
3.9300e+03,8.9630e-07
3.9400e+03,9.0361e-07
3.9500e+03,9.1519e-07
3.9600e+03,9.2930e-07
3.9700e+03,9.4352e-07
3.9800e+03,9.5556e-07
3.9900e+03,9.6388e-07
4.0000e+03,9.6797e-07
4.0100e+03,9.6833e-07
4.0200e+03,9.6627e-07
4.0300e+03,9.6347e-07
4.0400e+03,9.6152e-07
4.0500e+03,9.6143e-07
4.0600e+03,9.6344e-07
4.0700e+03,9.6698e-07
4.0800e+03,9.7094e-07
4.0900e+03,9.7402e-07
4.1000e+03,9.7508e-07
4.1100e+03,9.7345e-07
4.1200e+03,9.6895e-07
4.1300e+03,9.6190e-07
4.1400e+03,9.5297e-07
4.1500e+03,9.4306e-07
4.1600e+03,9.3308e-07
4.1700e+03,9.2375e-07
4.1800e+03,9.1550e-07
4.1900e+03,9.0851e-07
4.2000e+03,9.0280e-07
4.2100e+03,8.9834e-07
4.2200e+03,8.9512e-07
4.2300e+03,8.9314e-07
4.2400e+03,8.9237e-07
4.2500e+03,8.9271e-07
4.2600e+03,8.9389e-07
4.2700e+03,8.9556e-07
4.2800e+03,8.9729e-07
4.2900e+03,8.9865e-07
4.3000e+03,8.9936e-07
4.3100e+03,8.9927e-07
4.3200e+03,8.9841e-07
4.3300e+03,8.9694e-07
4.3400e+03,8.9504e-07
4.3500e+03,8.9295e-07
4.3600e+03,8.9088e-07
4.3700e+03,8.8903e-07
4.3800e+03,8.8757e-07
4.3900e+03,8.8656e-07
4.4000e+03,8.8597e-07
4.4100e+03,8.8568e-07
4.4200e+03,8.8551e-07
4.4300e+03,8.8531e-07
4.4400e+03,8.8502e-07
4.4500e+03,8.8469e-07
4.4600e+03,8.8447e-07
4.4700e+03,8.8452e-07
4.4800e+03,8.8497e-07
4.4900e+03,8.8588e-07
4.5000e+03,8.8720e-07
4.5100e+03,8.8881e-07
4.5200e+03,8.9049e-07
4.5300e+03,8.9204e-07
4.5400e+03,8.9324e-07
4.5500e+03,8.9394e-07
4.5600e+03,8.9411e-07
4.5700e+03,8.9384e-07
4.5800e+03,8.9332e-07
4.5900e+03,8.9280e-07
4.6000e+03,8.9247e-07
4.6100e+03,8.9245e-07
4.6200e+03,8.9273e-07
4.6300e+03,8.9318e-07
4.6400e+03,8.9360e-07
4.6500e+03,8.9378e-07
4.6600e+03,8.9360e-07
4.6700e+03,8.9303e-07
4.6800e+03,8.9210e-07
4.6900e+03,8.9091e-07
4.7000e+03,8.8955e-07
4.7100e+03,8.8817e-07
4.7200e+03,8.8688e-07
4.7300e+03,8.8581e-07
4.7400e+03,8.8504e-07
4.7500e+03,8.8462e-07
4.7600e+03,8.8462e-07
4.7700e+03,8.8510e-07
4.7800e+03,8.8618e-07
4.7900e+03,8.8800e-07
4.8000e+03,8.9077e-07
4.8100e+03,8.9472e-07
4.8200e+03,8.9999e-07
4.8300e+03,9.0649e-07
4.8400e+03,9.1371e-07
4.8500e+03,9.2088e-07
4.8600e+03,9.2719e-07
4.8700e+03,9.3215e-07
4.8800e+03,9.3574e-07
4.8900e+03,9.3823e-07
4.9000e+03,9.3999e-07
4.9100e+03,9.4131e-07
4.9200e+03,9.4260e-07
4.9300e+03,9.4447e-07
4.9400e+03,9.4769e-07
4.9500e+03,9.5281e-07
4.9600e+03,9.5972e-07
4.9700e+03,9.6737e-07
4.9800e+03,9.7410e-07
4.9900e+03,9.7817e-07
5.0000e+03,9.7851e-07
5.0100e+03,9.7515e-07
5.0200e+03,9.6917e-07
5.0300e+03,9.6227e-07
5.0400e+03,9.5608e-07
5.0500e+03,9.5163e-07
5.0600e+03,9.4919e-07
5.0700e+03,9.4825e-07
5.0800e+03,9.4780e-07
5.0900e+03,9.4651e-07
5.1000e+03,9.4303e-07
5.1100e+03,9.3633e-07
5.1200e+03,9.2603e-07
5.1300e+03,9.1279e-07
5.1400e+03,8.9823e-07
5.1500e+03,8.8438e-07
5.1600e+03,8.7285e-07
5.1700e+03,8.6429e-07
5.1800e+03,8.5834e-07
5.1900e+03,8.5421e-07
5.2000e+03,8.5128e-07
5.2100e+03,8.4932e-07
5.2200e+03,8.4837e-07
5.2300e+03,8.4836e-07
5.2400e+03,8.4893e-07
5.2500e+03,8.4943e-07
5.2600e+03,8.4926e-07
5.2700e+03,8.4801e-07
5.2800e+03,8.4572e-07
5.2900e+03,8.4292e-07
5.3000e+03,8.4066e-07
5.3100e+03,8.4034e-07
5.3200e+03,8.4318e-07
5.3300e+03,8.4967e-07
5.3400e+03,8.5918e-07
5.3500e+03,8.7002e-07
5.3600e+03,8.8003e-07
5.3700e+03,8.8742e-07
5.3800e+03,8.9128e-07
5.3900e+03,8.9176e-07
5.4000e+03,8.8978e-07
5.4100e+03,8.8658e-07
5.4200e+03,8.8330e-07
5.4300e+03,8.8069e-07
5.4400e+03,8.7906e-07
5.4500e+03,8.7833e-07
5.4600e+03,8.7809e-07
5.4700e+03,8.7782e-07
5.4800e+03,8.7703e-07
5.4900e+03,8.7542e-07
5.5000e+03,8.7300e-07
5.5100e+03,8.7001e-07
5.5200e+03,8.6685e-07
5.5300e+03,8.6389e-07
5.5400e+03,8.6135e-07
5.5500e+03,8.5927e-07
5.5600e+03,8.5753e-07
5.5700e+03,8.5599e-07
5.5800e+03,8.5454e-07
5.5900e+03,8.5318e-07
5.6000e+03,8.5195e-07
5.6100e+03,8.5092e-07
5.6200e+03,8.5016e-07
5.6300e+03,8.4970e-07
5.6400e+03,8.4951e-07
5.6500e+03,8.4948e-07
5.6600e+03,8.4947e-07
5.6700e+03,8.4938e-07
5.6800e+03,8.4922e-07
5.6900e+03,8.4911e-07
5.7000e+03,8.4919e-07
5.7100e+03,8.4951e-07
5.7200e+03,8.4997e-07
5.7300e+03,8.5039e-07
5.7400e+03,8.5058e-07
5.7500e+03,8.5044e-07
5.7600e+03,8.4995e-07
5.7700e+03,8.4918e-07
5.7800e+03,8.4818e-07
5.7900e+03,8.4695e-07
5.8000e+03,8.4550e-07
5.8100e+03,8.4388e-07
5.8200e+03,8.4226e-07
5.8300e+03,8.4086e-07
5.8400e+03,8.3985e-07
5.8500e+03,8.3919e-07
5.8600e+03,8.3862e-07
5.8700e+03,8.3776e-07
5.8800e+03,8.3628e-07
5.8900e+03,8.3406e-07
5.9000e+03,8.3125e-07
5.9100e+03,8.2823e-07
5.9200e+03,8.2555e-07
5.9300e+03,8.2373e-07
5.9400e+03,8.2316e-07
5.9500e+03,8.2385e-07
5.9600e+03,8.2547e-07
5.9700e+03,8.2741e-07
5.9800e+03,8.2904e-07
5.9900e+03,8.2989e-07
6.0000e+03,8.2977e-07
6.0100e+03,8.2875e-07
6.0200e+03,8.2705e-07
6.0300e+03,8.2492e-07
6.0400e+03,8.2253e-07
6.0500e+03,8.1992e-07
6.0600e+03,8.1704e-07
6.0700e+03,8.1387e-07
6.0800e+03,8.1066e-07
6.0900e+03,8.0807e-07
6.1000e+03,8.0712e-07
6.1100e+03,8.0880e-07
6.1200e+03,8.1365e-07
6.1300e+03,8.2130e-07
6.1400e+03,8.3059e-07
6.1500e+03,8.3987e-07
6.1600e+03,8.4765e-07
6.1700e+03,8.5310e-07
6.1800e+03,8.5643e-07
6.1900e+03,8.5883e-07
6.2000e+03,8.6212e-07
6.2100e+03,8.6812e-07
6.2200e+03,8.7793e-07
6.2300e+03,8.9142e-07
6.2400e+03,9.0713e-07
6.2500e+03,9.2264e-07
6.2600e+03,9.3536e-07
6.2700e+03,9.4341e-07
6.2800e+03,9.4617e-07
6.2900e+03,9.4435e-07
6.3000e+03,9.3965e-07
6.3100e+03,9.3403e-07
6.3200e+03,9.2910e-07
6.3300e+03,9.2559e-07
6.3400e+03,9.2336e-07
6.3500e+03,9.2163e-07
6.3600e+03,9.1946e-07
6.3700e+03,9.1627e-07
6.3800e+03,9.1204e-07
6.3900e+03,9.0739e-07
6.4000e+03,9.0336e-07
6.4100e+03,9.0109e-07
6.4200e+03,9.0150e-07
6.4300e+03,9.0501e-07
6.4400e+03,9.1145e-07
6.4500e+03,9.2005e-07
6.4600e+03,9.2953e-07
6.4700e+03,9.3844e-07
6.4800e+03,9.4541e-07
6.4900e+03,9.4944e-07
6.5000e+03,9.5004e-07
6.5100e+03,9.4721e-07
6.5200e+03,9.4149e-07
6.5300e+03,9.3383e-07
6.5400e+03,9.2555e-07
6.5500e+03,9.1807e-07
6.5600e+03,9.1264e-07
6.5700e+03,9.1002e-07
6.5800e+03,9.1039e-07
6.5900e+03,9.1334e-07
6.6000e+03,9.1799e-07
6.6100e+03,9.2322e-07
6.6200e+03,9.2797e-07
6.6300e+03,9.3144e-07
6.6400e+03,9.3334e-07
6.6500e+03,9.3381e-07
6.6600e+03,9.3328e-07
6.6700e+03,9.3224e-07
6.6800e+03,9.3113e-07
6.6900e+03,9.3022e-07
6.7000e+03,9.2969e-07
6.7100e+03,9.2961e-07
6.7200e+03,9.2990e-07
6.7300e+03,9.3031e-07
6.7400e+03,9.3046e-07
6.7500e+03,9.2993e-07
6.7600e+03,9.2846e-07
6.7700e+03,9.2608e-07
6.7800e+03,9.2311e-07
6.7900e+03,9.2012e-07
6.8000e+03,9.1770e-07
6.8100e+03,9.1626e-07
6.8200e+03,9.1580e-07
6.8300e+03,9.1594e-07
6.8400e+03,9.1590e-07
6.8500e+03,9.1483e-07
6.8600e+03,9.1198e-07
6.8700e+03,9.0696e-07
6.8800e+03,8.9997e-07
6.8900e+03,8.9179e-07
6.9000e+03,8.8364e-07
6.9100e+03,8.7682e-07
6.9200e+03,8.7224e-07
6.9300e+03,8.7016e-07
6.9400e+03,8.7023e-07
6.9500e+03,8.7171e-07
6.9600e+03,8.7377e-07
6.9700e+03,8.7577e-07
6.9800e+03,8.7730e-07
6.9900e+03,8.7821e-07
7.0000e+03,8.7861e-07
7.0100e+03,8.7884e-07
7.0200e+03,8.7942e-07
7.0300e+03,8.8098e-07
7.0400e+03,8.8400e-07
7.0500e+03,8.8864e-07
7.0600e+03,8.9453e-07
7.0700e+03,9.0087e-07
7.0800e+03,9.0661e-07
7.0900e+03,9.1085e-07
7.1000e+03,9.1318e-07
7.1100e+03,9.1376e-07
7.1200e+03,9.1321e-07
7.1300e+03,9.1225e-07
7.1400e+03,9.1144e-07
7.1500e+03,9.1107e-07
7.1600e+03,9.1110e-07
7.1700e+03,9.1126e-07
7.1800e+03,9.1127e-07
7.1900e+03,9.1118e-07
7.2000e+03,9.1164e-07
7.2100e+03,9.1387e-07
7.2200e+03,9.1922e-07
7.2300e+03,9.2853e-07
7.2400e+03,9.4154e-07
7.2500e+03,9.5676e-07
7.2600e+03,9.7179e-07
7.2700e+03,9.8397e-07
7.2800e+03,9.9123e-07
7.2900e+03,9.9282e-07
7.3000e+03,9.8951e-07
7.3100e+03,9.8327e-07
7.3200e+03,9.7644e-07
7.3300e+03,9.7088e-07
7.3400e+03,9.6740e-07
7.3500e+03,9.6572e-07
7.3600e+03,9.6493e-07
7.3700e+03,9.6401e-07
7.3800e+03,9.6235e-07
7.3900e+03,9.5982e-07
7.4000e+03,9.5662e-07
7.4100e+03,9.5295e-07
7.4200e+03,9.4887e-07
7.4300e+03,9.4437e-07
7.4400e+03,9.3948e-07
7.4500e+03,9.3439e-07
7.4600e+03,9.2941e-07
7.4700e+03,9.2483e-07
7.4800e+03,9.2082e-07
7.4900e+03,9.1749e-07
7.5000e+03,9.1493e-07
7.5100e+03,9.1341e-07
7.5200e+03,9.1337e-07
7.5300e+03,9.1543e-07
7.5400e+03,9.2009e-07
7.5500e+03,9.2743e-07
7.5600e+03,9.3671e-07
7.5700e+03,9.4641e-07
7.5800e+03,9.5469e-07
7.5900e+03,9.6013e-07
7.6000e+03,9.6218e-07
7.6100e+03,9.6112e-07
7.6200e+03,9.5778e-07
7.6300e+03,9.5313e-07
7.6400e+03,9.4807e-07
7.6500e+03,9.4335e-07
7.6600e+03,9.3949e-07
7.6700e+03,9.3673e-07
7.6800e+03,9.3508e-07
7.6900e+03,9.3426e-07
7.7000e+03,9.3390e-07
7.7100e+03,9.3362e-07
7.7200e+03,9.3316e-07
7.7300e+03,9.3239e-07
7.7400e+03,9.3127e-07
7.7500e+03,9.2980e-07
7.7600e+03,9.2799e-07
7.7700e+03,9.2590e-07
7.7800e+03,9.2373e-07
7.7900e+03,9.2179e-07
7.8000e+03,9.2046e-07
7.8100e+03,9.2008e-07
7.8200e+03,9.2074e-07
7.8300e+03,9.2217e-07
7.8400e+03,9.2370e-07
7.8500e+03,9.2444e-07
7.8600e+03,9.2362e-07
7.8700e+03,9.2088e-07
7.8800e+03,9.1641e-07
7.8900e+03,9.1091e-07
7.9000e+03,9.0538e-07
7.9100e+03,9.0079e-07
7.9200e+03,8.9778e-07
7.9300e+03,8.9651e-07
7.9400e+03,8.9659e-07
7.9500e+03,8.9734e-07
7.9600e+03,8.9810e-07
7.9700e+03,8.9851e-07
7.9800e+03,8.9862e-07
7.9900e+03,8.9883e-07
8.0000e+03,8.9965e-07
8.0100e+03,9.0141e-07
8.0200e+03,9.0404e-07
8.0300e+03,9.0706e-07
8.0400e+03,9.0969e-07
8.0500e+03,9.1115e-07
8.0600e+03,9.1091e-07
8.0700e+03,9.0889e-07
8.0800e+03,9.0548e-07
8.0900e+03,9.0134e-07
8.1000e+03,8.9716e-07
8.1100e+03,8.9338e-07
8.1200e+03,8.9006e-07
8.1300e+03,8.8699e-07
8.1400e+03,8.8380e-07
8.1500e+03,8.8020e-07
8.1600e+03,8.7601e-07
8.1700e+03,8.7123e-07
8.1800e+03,8.6592e-07
8.1900e+03,8.6024e-07
8.2000e+03,8.5438e-07
8.2100e+03,8.4854e-07
8.2200e+03,8.4275e-07
8.2300e+03,8.3683e-07
8.2400e+03,8.3038e-07
8.2500e+03,8.2303e-07
8.2600e+03,8.1462e-07
8.2700e+03,8.0544e-07
8.2800e+03,7.9620e-07
8.2900e+03,7.8782e-07
8.3000e+03,7.8114e-07
8.3100e+03,7.7656e-07
8.3200e+03,7.7397e-07
8.3300e+03,7.7276e-07
8.3400e+03,7.7216e-07
8.3500e+03,7.7148e-07
8.3600e+03,7.7035e-07
8.3700e+03,7.6870e-07
8.3800e+03,7.6667e-07
8.3900e+03,7.6450e-07
8.4000e+03,7.6243e-07
8.4100e+03,7.6064e-07
8.4200e+03,7.5920e-07
8.4300e+03,7.5806e-07
8.4400e+03,7.5700e-07
8.4500e+03,7.5576e-07
8.4600e+03,7.5417e-07
8.4700e+03,7.5225e-07
8.4800e+03,7.5029e-07
8.4900e+03,7.4882e-07
8.5000e+03,7.4843e-07
8.5100e+03,7.4955e-07
8.5200e+03,7.5233e-07
8.5300e+03,7.5655e-07
8.5400e+03,7.6172e-07
8.5500e+03,7.6724e-07
8.5600e+03,7.7248e-07
8.5700e+03,7.7682e-07
8.5800e+03,7.7973e-07
8.5900e+03,7.8076e-07
8.6000e+03,7.7966e-07
8.6100e+03,7.7654e-07
8.6200e+03,7.7185e-07
8.6300e+03,7.6630e-07
8.6400e+03,7.6070e-07
8.6500e+03,7.5582e-07
8.6600e+03,7.5236e-07
8.6700e+03,7.5089e-07
8.6800e+03,7.5176e-07
8.6900e+03,7.5495e-07
8.7000e+03,7.5989e-07
8.7100e+03,7.6557e-07
8.7200e+03,7.7074e-07
8.7300e+03,7.7438e-07
8.7400e+03,7.7605e-07
8.7500e+03,7.7594e-07
8.7600e+03,7.7470e-07
8.7700e+03,7.7295e-07
8.7800e+03,7.7104e-07
8.7900e+03,7.6900e-07
8.8000e+03,7.6684e-07
8.8100e+03,7.6489e-07
8.8200e+03,7.6371e-07
8.8300e+03,7.6377e-07
8.8400e+03,7.6499e-07
8.8500e+03,7.6659e-07
8.8600e+03,7.6743e-07
8.8700e+03,7.6667e-07
8.8800e+03,7.6430e-07
8.8900e+03,7.6123e-07
8.9000e+03,7.5884e-07
8.9100e+03,7.5832e-07
8.9200e+03,7.6011e-07
8.9300e+03,7.6385e-07
8.9400e+03,7.6861e-07
8.9500e+03,7.7332e-07
8.9600e+03,7.7711e-07
8.9700e+03,7.7942e-07
8.9800e+03,7.8008e-07
8.9900e+03,7.7924e-07
9.0000e+03,7.7740e-07
9.0100e+03,7.7530e-07
9.0200e+03,7.7377e-07
9.0300e+03,7.7340e-07
9.0400e+03,7.7434e-07
9.0500e+03,7.7632e-07
9.0600e+03,7.7886e-07
9.0700e+03,7.8147e-07
