# Time , Side-Flux
0.0000e+00,0.0000e+00
1.0000e+01,3.8810e-05
2.0000e+01,6.5332e-05
3.0000e+01,7.7470e-05
4.0000e+01,7.9634e-05
5.0000e+01,7.6886e-05
6.0000e+01,7.2781e-05
7.0000e+01,6.9189e-05
8.0000e+01,6.6754e-05
9.0000e+01,6.5425e-05
1.0000e+02,6.4874e-05
1.1000e+02,6.4750e-05
1.2000e+02,6.4796e-05
1.3000e+02,6.4869e-05
1.4000e+02,6.4912e-05
1.5000e+02,6.4920e-05
1.6000e+02,6.4909e-05
1.7000e+02,6.4893e-05
1.8000e+02,6.4881e-05
1.9000e+02,6.4876e-05
2.0000e+02,6.4875e-05
2.1000e+02,6.4876e-05
2.2000e+02,6.4878e-05
2.3000e+02,6.4880e-05
2.4000e+02,6.4882e-05
2.5000e+02,6.4884e-05
2.6000e+02,6.4885e-05
2.7000e+02,6.4884e-05
2.8000e+02,6.4883e-05
2.9000e+02,6.4878e-05
3.0000e+02,6.4871e-05
3.1000e+02,6.4868e-05
3.2000e+02,6.4859e-05
3.3000e+02,6.4826e-05
3.4000e+02,6.4765e-05
3.5000e+02,6.4693e-05
3.6000e+02,6.4618e-05
3.7000e+02,6.4524e-05
3.8000e+02,6.4386e-05
3.9000e+02,6.4201e-05
4.0000e+02,6.3984e-05
4.1000e+02,6.3757e-05
4.2000e+02,6.3533e-05
4.3000e+02,6.3318e-05
4.4000e+02,6.3118e-05
4.5000e+02,6.2947e-05
4.6000e+02,6.2824e-05
4.7000e+02,6.2763e-05
4.8000e+02,6.2758e-05
4.9000e+02,6.2792e-05
5.0000e+02,6.2839e-05
5.1000e+02,6.2881e-05
5.2000e+02,6.2910e-05
5.3000e+02,6.2926e-05
5.4000e+02,6.2929e-05
5.5000e+02,6.2923e-05
5.6000e+02,6.2907e-05
5.7000e+02,6.2876e-05
5.8000e+02,6.2823e-05
5.9000e+02,6.2730e-05
6.0000e+02,6.2556e-05
6.1000e+02,6.2286e-05
6.2000e+02,6.1990e-05
6.3000e+02,6.1797e-05
6.4000e+02,6.1762e-05
6.5000e+02,6.1784e-05
6.6000e+02,6.1685e-05
6.7000e+02,6.1391e-05
6.8000e+02,6.1034e-05
6.9000e+02,6.0894e-05
7.0000e+02,6.1117e-05
7.1000e+02,6.1564e-05
7.2000e+02,6.1987e-05
7.3000e+02,6.2169e-05
7.4000e+02,6.2057e-05
7.5000e+02,6.1790e-05
7.6000e+02,6.1543e-05
7.7000e+02,6.1402e-05
7.8000e+02,6.1362e-05
7.9000e+02,6.1337e-05
8.0000e+02,6.1186e-05
8.1000e+02,6.0782e-05
8.2000e+02,6.0121e-05
8.3000e+02,5.9321e-05
8.4000e+02,5.8589e-05
8.5000e+02,5.8169e-05
8.6000e+02,5.8185e-05
8.7000e+02,5.8504e-05
8.8000e+02,5.8840e-05
8.9000e+02,5.8975e-05
9.0000e+02,5.8828e-05
9.1000e+02,5.8387e-05
9.2000e+02,5.7678e-05
9.3000e+02,5.6839e-05
9.4000e+02,5.6087e-05
9.5000e+02,5.5579e-05
9.6000e+02,5.5357e-05
9.7000e+02,5.5305e-05
9.8000e+02,5.5300e-05
9.9000e+02,5.5339e-05
1.0000e+03,5.5371e-05
1.0100e+03,5.5275e-05
1.0200e+03,5.4965e-05
1.0300e+03,5.4382e-05
1.0400e+03,5.3563e-05
1.0500e+03,5.2675e-05
1.0600e+03,5.1916e-05
1.0700e+03,5.1452e-05
1.0800e+03,5.1305e-05
1.0900e+03,5.1281e-05
1.1000e+03,5.1212e-05
1.1100e+03,5.1243e-05
1.1200e+03,5.1603e-05
1.1300e+03,5.2224e-05
1.1400e+03,5.2845e-05
1.1500e+03,5.3282e-05
1.1600e+03,5.3511e-05
1.1700e+03,5.3587e-05
1.1800e+03,5.3545e-05
1.1900e+03,5.3424e-05
1.2000e+03,5.3285e-05
1.2100e+03,5.3166e-05
1.2200e+03,5.3056e-05
1.2300e+03,5.2920e-05
1.2400e+03,5.2695e-05
1.2500e+03,5.2343e-05
1.2600e+03,5.1943e-05
1.2700e+03,5.1657e-05
1.2800e+03,5.1605e-05
1.2900e+03,5.1775e-05
1.3000e+03,5.2032e-05
1.3100e+03,5.2228e-05
1.3200e+03,5.2288e-05
1.3300e+03,5.2194e-05
1.3400e+03,5.1946e-05
1.3500e+03,5.1543e-05
1.3600e+03,5.1022e-05
1.3700e+03,5.0518e-05
1.3800e+03,5.0177e-05
1.3900e+03,5.0057e-05
1.4000e+03,5.0128e-05
1.4100e+03,5.0328e-05
1.4200e+03,5.0560e-05
1.4300e+03,5.0716e-05
1.4400e+03,5.0758e-05
1.4500e+03,5.0735e-05
1.4600e+03,5.0705e-05
1.4700e+03,5.0693e-05
1.4800e+03,5.0702e-05
1.4900e+03,5.0722e-05
1.5000e+03,5.0741e-05
1.5100e+03,5.0753e-05
1.5200e+03,5.0751e-05
1.5300e+03,5.0728e-05
1.5400e+03,5.0685e-05
1.5500e+03,5.0628e-05
1.5600e+03,5.0562e-05
1.5700e+03,5.0489e-05
1.5800e+03,5.0412e-05
1.5900e+03,5.0338e-05
1.6000e+03,5.0258e-05
1.6100e+03,5.0136e-05
1.6200e+03,4.9924e-05
1.6300e+03,4.9592e-05
1.6400e+03,4.9153e-05
1.6500e+03,4.8682e-05
1.6600e+03,4.8281e-05
1.6700e+03,4.8030e-05
1.6800e+03,4.7978e-05
1.6900e+03,4.8137e-05
1.7000e+03,4.8418e-05
1.7100e+03,4.8642e-05
1.7200e+03,4.8701e-05
1.7300e+03,4.8617e-05
1.7400e+03,4.8446e-05
1.7500e+03,4.8267e-05
1.7600e+03,4.8164e-05
1.7700e+03,4.8169e-05
1.7800e+03,4.8253e-05
1.7900e+03,4.8362e-05
1.8000e+03,4.8417e-05
1.8100e+03,4.8340e-05
1.8200e+03,4.8094e-05
1.8300e+03,4.7694e-05
1.8400e+03,4.7176e-05
1.8500e+03,4.6626e-05
1.8600e+03,4.6223e-05
1.8700e+03,4.6123e-05
1.8800e+03,4.6309e-05
1.8900e+03,4.6665e-05
1.9000e+03,4.7071e-05
1.9100e+03,4.7418e-05
1.9200e+03,4.7630e-05
1.9300e+03,4.7666e-05
1.9400e+03,4.7523e-05
1.9500e+03,4.7256e-05
1.9600e+03,4.6952e-05
1.9700e+03,4.6635e-05
1.9800e+03,4.6265e-05
1.9900e+03,4.5844e-05
2.0000e+03,4.5412e-05
2.0100e+03,4.4983e-05
2.0200e+03,4.4584e-05
2.0300e+03,4.4307e-05
2.0400e+03,4.4254e-05
2.0500e+03,4.4410e-05
2.0600e+03,4.4672e-05
2.0700e+03,4.4988e-05
2.0800e+03,4.5317e-05
2.0900e+03,4.5510e-05
2.1000e+03,4.5444e-05
2.1100e+03,4.5188e-05
2.1200e+03,4.4898e-05
2.1300e+03,4.4616e-05
2.1400e+03,4.4279e-05
2.1500e+03,4.3929e-05
2.1600e+03,4.3742e-05
2.1700e+03,4.3796e-05
2.1800e+03,4.3950e-05
2.1900e+03,4.4040e-05
2.2000e+03,4.4077e-05
2.2100e+03,4.4202e-05
2.2200e+03,4.4493e-05
2.2300e+03,4.4863e-05
2.2400e+03,4.5110e-05
2.2500e+03,4.5078e-05
2.2600e+03,4.4721e-05
2.2700e+03,4.4148e-05
2.2800e+03,4.3606e-05
2.2900e+03,4.3309e-05
2.3000e+03,4.3246e-05
2.3100e+03,4.3226e-05
2.3200e+03,4.3087e-05
2.3300e+03,4.2807e-05
2.3400e+03,4.2478e-05
2.3500e+03,4.2236e-05
2.3600e+03,4.2164e-05
2.3700e+03,4.2236e-05
2.3800e+03,4.2373e-05
2.3900e+03,4.2525e-05
2.4000e+03,4.2696e-05
2.4100e+03,4.2884e-05
2.4200e+03,4.3036e-05
2.4300e+03,4.3080e-05
2.4400e+03,4.3002e-05
2.4500e+03,4.2845e-05
2.4600e+03,4.2655e-05
2.4700e+03,4.2454e-05
2.4800e+03,4.2277e-05
2.4900e+03,4.2174e-05
2.5000e+03,4.2163e-05
2.5100e+03,4.2214e-05
2.5200e+03,4.2276e-05
2.5300e+03,4.2310e-05
2.5400e+03,4.2299e-05
2.5500e+03,4.2231e-05
2.5600e+03,4.2100e-05
2.5700e+03,4.1907e-05
2.5800e+03,4.1662e-05
2.5900e+03,4.1390e-05
2.6000e+03,4.1128e-05
2.6100e+03,4.0912e-05
2.6200e+03,4.0773e-05
2.6300e+03,4.0742e-05
2.6400e+03,4.0825e-05
2.6500e+03,4.0996e-05
2.6600e+03,4.1214e-05
2.6700e+03,4.1391e-05
2.6800e+03,4.1478e-05
2.6900e+03,4.1527e-05
2.7000e+03,4.1582e-05
2.7100e+03,4.1587e-05
2.7200e+03,4.1441e-05
2.7300e+03,4.1074e-05
2.7400e+03,4.0533e-05
2.7500e+03,3.9991e-05
2.7600e+03,3.9590e-05
2.7700e+03,3.9351e-05
2.7800e+03,3.9259e-05
2.7900e+03,3.9307e-05
2.8000e+03,3.9470e-05
2.8100e+03,3.9732e-05
2.8200e+03,4.0076e-05
2.8300e+03,4.0430e-05
2.8400e+03,4.0664e-05
2.8500e+03,4.0689e-05
2.8600e+03,4.0548e-05
2.8700e+03,4.0375e-05
2.8800e+03,4.0256e-05
2.8900e+03,4.0143e-05
2.9000e+03,3.9915e-05
2.9100e+03,3.9543e-05
2.9200e+03,3.9161e-05
2.9300e+03,3.8983e-05
2.9400e+03,3.9082e-05
2.9500e+03,3.9336e-05
2.9600e+03,3.9594e-05
2.9700e+03,3.9849e-05
2.9800e+03,4.0154e-05
2.9900e+03,4.0422e-05
3.0000e+03,4.0430e-05
3.0100e+03,4.0039e-05
3.0200e+03,3.9370e-05
3.0300e+03,3.8692e-05
3.0400e+03,3.8150e-05
3.0500e+03,3.7724e-05
3.0600e+03,3.7353e-05
3.0700e+03,3.6954e-05
3.0800e+03,3.6402e-05
3.0900e+03,3.5523e-05
3.1000e+03,3.4218e-05
3.1100e+03,3.2602e-05
3.1200e+03,3.1003e-05
3.1300e+03,2.9823e-05
3.1400e+03,2.9336e-05
3.1500e+03,2.9547e-05
3.1600e+03,3.0213e-05
3.1700e+03,3.1042e-05
3.1800e+03,3.1907e-05
3.1900e+03,3.2814e-05
3.2000e+03,3.3742e-05
3.2100e+03,3.4546e-05
3.2200e+03,3.5042e-05
3.2300e+03,3.5206e-05
3.2400e+03,3.5183e-05
3.2500e+03,3.5079e-05
3.2600e+03,3.4903e-05
3.2700e+03,3.4665e-05
3.2800e+03,3.4422e-05
3.2900e+03,3.4247e-05
3.3000e+03,3.4165e-05
3.3100e+03,3.4142e-05
3.3200e+03,3.4135e-05
3.3300e+03,3.4122e-05
3.3400e+03,3.4084e-05
3.3500e+03,3.4050e-05
3.3600e+03,3.4087e-05
3.3700e+03,3.4219e-05
3.3800e+03,3.4398e-05
3.3900e+03,3.4565e-05
3.4000e+03,3.4690e-05
3.4100e+03,3.4791e-05
3.4200e+03,3.4925e-05
3.4300e+03,3.5119e-05
3.4400e+03,3.5362e-05
3.4500e+03,3.5658e-05
3.4600e+03,3.6003e-05
3.4700e+03,3.6328e-05
3.4800e+03,3.6491e-05
3.4900e+03,3.6317e-05
3.5000e+03,3.5742e-05
3.5100e+03,3.4954e-05
3.5200e+03,3.4310e-05
3.5300e+03,3.4036e-05
3.5400e+03,3.4058e-05
3.5500e+03,3.4156e-05
3.5600e+03,3.4206e-05
3.5700e+03,3.4210e-05
3.5800e+03,3.4195e-05
3.5900e+03,3.4166e-05
3.6000e+03,3.4127e-05
3.6100e+03,3.4078e-05
3.6200e+03,3.4013e-05
3.6300e+03,3.3919e-05
3.6400e+03,3.3779e-05
3.6500e+03,3.3575e-05
3.6600e+03,3.3309e-05
3.6700e+03,3.3008e-05
3.6800e+03,3.2721e-05
3.6900e+03,3.2510e-05
3.7000e+03,3.2444e-05
3.7100e+03,3.2534e-05
3.7200e+03,3.2697e-05
3.7300e+03,3.2833e-05
3.7400e+03,3.2907e-05
3.7500e+03,3.2923e-05
3.7600e+03,3.2906e-05
3.7700e+03,3.2905e-05
3.7800e+03,3.2951e-05
3.7900e+03,3.2988e-05
3.8000e+03,3.2958e-05
3.8100e+03,3.2870e-05
3.8200e+03,3.2778e-05
3.8300e+03,3.2709e-05
3.8400e+03,3.2649e-05
3.8500e+03,3.2583e-05
3.8600e+03,3.2487e-05
3.8700e+03,3.2360e-05
3.8800e+03,3.2231e-05
3.8900e+03,3.2085e-05
3.9000e+03,3.1873e-05
3.9100e+03,3.1596e-05
3.9200e+03,3.1386e-05
3.9300e+03,3.1460e-05
3.9400e+03,3.1952e-05
3.9500e+03,3.2798e-05
3.9600e+03,3.3731e-05
3.9700e+03,3.4411e-05
3.9800e+03,3.4716e-05
3.9900e+03,3.4776e-05
4.0000e+03,3.4640e-05
4.0100e+03,3.4252e-05
4.0200e+03,3.3637e-05
4.0300e+03,3.2957e-05
4.0400e+03,3.2440e-05
4.0500e+03,3.2208e-05
4.0600e+03,3.2290e-05
4.0700e+03,3.2715e-05
4.0800e+03,3.3431e-05
4.0900e+03,3.4215e-05
4.1000e+03,3.4782e-05
4.1100e+03,3.5125e-05
4.1200e+03,3.5499e-05
4.1300e+03,3.5980e-05
4.1400e+03,3.6256e-05
4.1500e+03,3.5977e-05
4.1600e+03,3.5102e-05
4.1700e+03,3.3899e-05
4.1800e+03,3.2695e-05
4.1900e+03,3.1592e-05
4.2000e+03,3.0564e-05
4.2100e+03,2.9627e-05
4.2200e+03,2.8851e-05
4.2300e+03,2.8297e-05
4.2400e+03,2.7988e-05
4.2500e+03,2.7906e-05
4.2600e+03,2.7995e-05
4.2700e+03,2.8199e-05
4.2800e+03,2.8475e-05
4.2900e+03,2.8786e-05
4.3000e+03,2.9071e-05
4.3100e+03,2.9268e-05
4.3200e+03,2.9340e-05
4.3300e+03,2.9294e-05
4.3400e+03,2.9171e-05
4.3500e+03,2.9020e-05
4.3600e+03,2.8876e-05
4.3700e+03,2.8756e-05
4.3800e+03,2.8667e-05
4.3900e+03,2.8620e-05
4.4000e+03,2.8620e-05
4.4100e+03,2.8655e-05
4.4200e+03,2.8706e-05
4.4300e+03,2.8744e-05
4.4400e+03,2.8751e-05
4.4500e+03,2.8734e-05
4.4600e+03,2.8712e-05
4.4700e+03,2.8703e-05
4.4800e+03,2.8732e-05
4.4900e+03,2.8810e-05
4.5000e+03,2.8913e-05
4.5100e+03,2.9007e-05
4.5200e+03,2.9081e-05
4.5300e+03,2.9143e-05
4.5400e+03,2.9198e-05
4.5500e+03,2.9239e-05
4.5600e+03,2.9257e-05
4.5700e+03,2.9259e-05
4.5800e+03,2.9263e-05
4.5900e+03,2.9277e-05
4.6000e+03,2.9307e-05
4.6100e+03,2.9374e-05
4.6200e+03,2.9512e-05
4.6300e+03,2.9706e-05
4.6400e+03,2.9866e-05
4.6500e+03,2.9906e-05
4.6600e+03,2.9829e-05
4.6700e+03,2.9723e-05
4.6800e+03,2.9662e-05
4.6900e+03,2.9630e-05
4.7000e+03,2.9555e-05
4.7100e+03,2.9402e-05
4.7200e+03,2.9219e-05
4.7300e+03,2.9098e-05
4.7400e+03,2.9102e-05
4.7500e+03,2.9231e-05
4.7600e+03,2.9434e-05
4.7700e+03,2.9630e-05
4.7800e+03,2.9767e-05
4.7900e+03,2.9816e-05
4.8000e+03,2.9764e-05
4.8100e+03,2.9686e-05
4.8200e+03,2.9785e-05
4.8300e+03,3.0196e-05
4.8400e+03,3.0784e-05
4.8500e+03,3.1233e-05
4.8600e+03,3.1347e-05
4.8700e+03,3.1192e-05
4.8800e+03,3.0961e-05
4.8900e+03,3.0824e-05
4.9000e+03,3.0830e-05
4.9100e+03,3.0861e-05
4.9200e+03,3.0776e-05
4.9300e+03,3.0566e-05
4.9400e+03,3.0357e-05
4.9500e+03,3.0307e-05
4.9600e+03,3.0462e-05
4.9700e+03,3.0731e-05
4.9800e+03,3.0975e-05
4.9900e+03,3.1096e-05
5.0000e+03,3.1047e-05
5.0100e+03,3.0848e-05
5.0200e+03,3.0607e-05
5.0300e+03,3.0435e-05
5.0400e+03,3.0349e-05
5.0500e+03,3.0319e-05
5.0600e+03,3.0323e-05
5.0700e+03,3.0344e-05
5.0800e+03,3.0397e-05
5.0900e+03,3.0508e-05
5.1000e+03,3.0675e-05
5.1100e+03,3.0832e-05
5.1200e+03,3.0827e-05
5.1300e+03,3.0541e-05
5.1400e+03,3.0053e-05
5.1500e+03,2.9609e-05
5.1600e+03,2.9430e-05
5.1700e+03,2.9544e-05
5.1800e+03,2.9756e-05
5.1900e+03,2.9850e-05
5.2000e+03,2.9754e-05
5.2100e+03,2.9512e-05
5.2200e+03,2.9237e-05
5.2300e+03,2.9035e-05
5.2400e+03,2.8936e-05
5.2500e+03,2.8892e-05
5.2600e+03,2.8851e-05
5.2700e+03,2.8776e-05
5.2800e+03,2.8600e-05
5.2900e+03,2.8231e-05
5.3000e+03,2.7620e-05
5.3100e+03,2.6864e-05
5.3200e+03,2.6221e-05
5.3300e+03,2.5901e-05
5.3400e+03,2.5925e-05
5.3500e+03,2.6215e-05
5.3600e+03,2.6642e-05
5.3700e+03,2.7006e-05
5.3800e+03,2.7164e-05
5.3900e+03,2.7164e-05
5.4000e+03,2.7162e-05
5.4100e+03,2.7244e-05
5.4200e+03,2.7355e-05
5.4300e+03,2.7440e-05
5.4400e+03,2.7531e-05
5.4500e+03,2.7674e-05
5.4600e+03,2.7837e-05
5.4700e+03,2.7947e-05
5.4800e+03,2.7946e-05
5.4900e+03,2.7843e-05
5.5000e+03,2.7682e-05
5.5100e+03,2.7462e-05
5.5200e+03,2.7191e-05
5.5300e+03,2.6956e-05
5.5400e+03,2.6832e-05
5.5500e+03,2.6832e-05
5.5600e+03,2.6922e-05
5.5700e+03,2.7038e-05
5.5800e+03,2.7108e-05
5.5900e+03,2.7101e-05
5.6000e+03,2.7028e-05
5.6100e+03,2.6894e-05
5.6200e+03,2.6718e-05
5.6300e+03,2.6562e-05
5.6400e+03,2.6478e-05
5.6500e+03,2.6469e-05
5.6600e+03,2.6492e-05
5.6700e+03,2.6491e-05
5.6800e+03,2.6453e-05
5.6900e+03,2.6414e-05
5.7000e+03,2.6420e-05
5.7100e+03,2.6493e-05
5.7200e+03,2.6596e-05
5.7300e+03,2.6668e-05
5.7400e+03,2.6688e-05
5.7500e+03,2.6681e-05
5.7600e+03,2.6682e-05
5.7700e+03,2.6705e-05
5.7800e+03,2.6727e-05
5.7900e+03,2.6696e-05
5.8000e+03,2.6589e-05
5.8100e+03,2.6461e-05
5.8200e+03,2.6404e-05
5.8300e+03,2.6460e-05
5.8400e+03,2.6601e-05
5.8500e+03,2.6768e-05
5.8600e+03,2.6905e-05
5.8700e+03,2.6973e-05
5.8800e+03,2.6963e-05
5.8900e+03,2.6900e-05
5.9000e+03,2.6807e-05
5.9100e+03,2.6688e-05
5.9200e+03,2.6558e-05
5.9300e+03,2.6454e-05
5.9400e+03,2.6417e-05
5.9500e+03,2.6467e-05
5.9600e+03,2.6562e-05
5.9700e+03,2.6633e-05
5.9800e+03,2.6662e-05
5.9900e+03,2.6650e-05
6.0000e+03,2.6601e-05
6.0100e+03,2.6523e-05
6.0200e+03,2.6434e-05
6.0300e+03,2.6353e-05
6.0400e+03,2.6295e-05
6.0500e+03,2.6262e-05
6.0600e+03,2.6221e-05
6.0700e+03,2.6089e-05
6.0800e+03,2.5803e-05
6.0900e+03,2.5458e-05
6.1000e+03,2.5265e-05
6.1100e+03,2.5389e-05
6.1200e+03,2.5895e-05
6.1300e+03,2.6666e-05
6.1400e+03,2.7392e-05
6.1500e+03,2.7852e-05
6.1600e+03,2.8020e-05
6.1700e+03,2.7797e-05
6.1800e+03,2.7076e-05
6.1900e+03,2.6006e-05
6.2000e+03,2.4861e-05
6.2100e+03,2.3887e-05
6.2200e+03,2.3324e-05
6.2300e+03,2.3336e-05
6.2400e+03,2.3925e-05
6.2500e+03,2.4906e-05
6.2600e+03,2.5897e-05
6.2700e+03,2.6533e-05
6.2800e+03,2.6709e-05
6.2900e+03,2.6526e-05
6.3000e+03,2.6076e-05
6.3100e+03,2.5442e-05
6.3200e+03,2.4759e-05
6.3300e+03,2.4162e-05
6.3400e+03,2.3718e-05
6.3500e+03,2.3418e-05
6.3600e+03,2.3220e-05
6.3700e+03,2.3073e-05
6.3800e+03,2.2936e-05
6.3900e+03,2.2831e-05
6.4000e+03,2.2806e-05
6.4100e+03,2.2863e-05
6.4200e+03,2.2962e-05
6.4300e+03,2.3083e-05
6.4400e+03,2.3270e-05
6.4500e+03,2.3559e-05
6.4600e+03,2.3880e-05
6.4700e+03,2.4119e-05
6.4800e+03,2.4219e-05
6.4900e+03,2.4200e-05
6.5000e+03,2.4103e-05
6.5100e+03,2.3939e-05
6.5200e+03,2.3707e-05
6.5300e+03,2.3415e-05
6.5400e+03,2.3097e-05
6.5500e+03,2.2812e-05
6.5600e+03,2.2608e-05
6.5700e+03,2.2504e-05
6.5800e+03,2.2496e-05
6.5900e+03,2.2565e-05
6.6000e+03,2.2721e-05
6.6100e+03,2.3013e-05
6.6200e+03,2.3441e-05
6.6300e+03,2.3841e-05
6.6400e+03,2.4017e-05
6.6500e+03,2.3914e-05
6.6600e+03,2.3656e-05
6.6700e+03,2.3429e-05
6.6800e+03,2.3303e-05
6.6900e+03,2.3241e-05
6.7000e+03,2.3207e-05
6.7100e+03,2.3192e-05
6.7200e+03,2.3205e-05
6.7300e+03,2.3247e-05
6.7400e+03,2.3295e-05
6.7500e+03,2.3327e-05
6.7600e+03,2.3341e-05
6.7700e+03,2.3341e-05
6.7800e+03,2.3332e-05
6.7900e+03,2.3320e-05
6.8000e+03,2.3318e-05
6.8100e+03,2.3343e-05
6.8200e+03,2.3388e-05
6.8300e+03,2.3415e-05
6.8400e+03,2.3400e-05
6.8500e+03,2.3365e-05
6.8600e+03,2.3303e-05
6.8700e+03,2.3113e-05
6.8800e+03,2.2681e-05
6.8900e+03,2.2028e-05
6.9000e+03,2.1304e-05
6.9100e+03,2.0690e-05
6.9200e+03,2.0365e-05
6.9300e+03,2.0413e-05
6.9400e+03,2.0731e-05
6.9500e+03,2.1134e-05
6.9600e+03,2.1543e-05
6.9700e+03,2.1946e-05
6.9800e+03,2.2224e-05
6.9900e+03,2.2232e-05
7.0000e+03,2.1975e-05
7.0100e+03,2.1581e-05
7.0200e+03,2.1227e-05
7.0300e+03,2.1106e-05
7.0400e+03,2.1273e-05
7.0500e+03,2.1620e-05
7.0600e+03,2.2041e-05
7.0700e+03,2.2487e-05
7.0800e+03,2.2857e-05
7.0900e+03,2.3006e-05
7.1000e+03,2.2913e-05
7.1100e+03,2.2726e-05
7.1200e+03,2.2597e-05
7.1300e+03,2.2543e-05
7.1400e+03,2.2520e-05
7.1500e+03,2.2523e-05
7.1600e+03,2.2583e-05
7.1700e+03,2.2715e-05
7.1800e+03,2.2836e-05
7.1900e+03,2.2797e-05
7.2000e+03,2.2571e-05
7.2100e+03,2.2320e-05
7.2200e+03,2.2240e-05
7.2300e+03,2.2405e-05
7.2400e+03,2.2821e-05
7.2500e+03,2.3485e-05
7.2600e+03,2.4346e-05
7.2700e+03,2.5299e-05
7.2800e+03,2.6192e-05
7.2900e+03,2.6840e-05
7.3000e+03,2.7131e-05
7.3100e+03,2.7094e-05
7.3200e+03,2.6869e-05
7.3300e+03,2.6605e-05
7.3400e+03,2.6379e-05
7.3500e+03,2.6185e-05
7.3600e+03,2.5981e-05
7.3700e+03,2.5751e-05
7.3800e+03,2.5531e-05
7.3900e+03,2.5373e-05
7.4000e+03,2.5284e-05
7.4100e+03,2.5240e-05
7.4200e+03,2.5201e-05
7.4300e+03,2.5123e-05
7.4400e+03,2.4999e-05
7.4500e+03,2.4873e-05
7.4600e+03,2.4797e-05
7.4700e+03,2.4775e-05
7.4800e+03,2.4740e-05
7.4900e+03,2.4620e-05
7.5000e+03,2.4448e-05
7.5100e+03,2.4281e-05
7.5200e+03,2.4060e-05
7.5300e+03,2.3701e-05
7.5400e+03,2.3270e-05
7.5500e+03,2.3076e-05
7.5600e+03,2.3519e-05
7.5700e+03,2.4561e-05
7.5800e+03,2.5662e-05
7.5900e+03,2.6354e-05
7.6000e+03,2.6581e-05
7.6100e+03,2.6578e-05
7.6200e+03,2.6530e-05
7.6300e+03,2.6459e-05
7.6400e+03,2.6347e-05
7.6500e+03,2.6214e-05
7.6600e+03,2.6093e-05
7.6700e+03,2.6001e-05
7.6800e+03,2.5937e-05
7.6900e+03,2.5882e-05
7.7000e+03,2.5799e-05
7.7100e+03,2.5652e-05
7.7200e+03,2.5425e-05
7.7300e+03,2.5139e-05
7.7400e+03,2.4830e-05
7.7500e+03,2.4542e-05
7.7600e+03,2.4309e-05
7.7700e+03,2.4108e-05
7.7800e+03,2.3892e-05
7.7900e+03,2.3662e-05
7.8000e+03,2.3470e-05
7.8100e+03,2.3399e-05
7.8200e+03,2.3539e-05
7.8300e+03,2.3896e-05
7.8400e+03,2.4342e-05
7.8500e+03,2.4678e-05
7.8600e+03,2.4771e-05
7.8700e+03,2.4610e-05
7.8800e+03,2.4271e-05
7.8900e+03,2.3870e-05
7.9000e+03,2.3498e-05
7.9100e+03,2.3229e-05
7.9200e+03,2.3125e-05
7.9300e+03,2.3176e-05
7.9400e+03,2.3295e-05
7.9500e+03,2.3383e-05
7.9600e+03,2.3371e-05
7.9700e+03,2.3247e-05
7.9800e+03,2.3065e-05
7.9900e+03,2.2911e-05
8.0000e+03,2.2849e-05
8.0100e+03,2.2909e-05
8.0200e+03,2.3115e-05
8.0300e+03,2.3403e-05
8.0400e+03,2.3647e-05
8.0500e+03,2.3782e-05
8.0600e+03,2.3755e-05
8.0700e+03,2.3487e-05
8.0800e+03,2.2993e-05
8.0900e+03,2.2376e-05
8.1000e+03,2.1732e-05
8.1100e+03,2.1169e-05
8.1200e+03,2.0812e-05
8.1300e+03,2.0668e-05
8.1400e+03,2.0595e-05
8.1500e+03,2.0436e-05
8.1600e+03,2.0113e-05
8.1700e+03,1.9608e-05
8.1800e+03,1.9007e-05
8.1900e+03,1.8527e-05
8.2000e+03,1.8372e-05
8.2100e+03,1.8561e-05
8.2200e+03,1.8904e-05
8.2300e+03,1.9176e-05
8.2400e+03,1.9197e-05
8.2500e+03,1.8837e-05
8.2600e+03,1.8099e-05
8.2700e+03,1.7122e-05
8.2800e+03,1.6081e-05
8.2900e+03,1.5102e-05
8.3000e+03,1.4303e-05
8.3100e+03,1.3918e-05
8.3200e+03,1.4124e-05
8.3300e+03,1.4815e-05
8.3400e+03,1.5685e-05
8.3500e+03,1.6453e-05
8.3600e+03,1.6912e-05
8.3700e+03,1.6931e-05
8.3800e+03,1.6523e-05
8.3900e+03,1.5846e-05
8.4000e+03,1.5107e-05
8.4100e+03,1.4463e-05
8.4200e+03,1.3998e-05
8.4300e+03,1.3728e-05
8.4400e+03,1.3605e-05
8.4500e+03,1.3572e-05
8.4600e+03,1.3589e-05
8.4700e+03,1.3625e-05
8.4800e+03,1.3646e-05
8.4900e+03,1.3661e-05
8.5000e+03,1.3706e-05
8.5100e+03,1.3796e-05
8.5200e+03,1.3913e-05
8.5300e+03,1.4028e-05
8.5400e+03,1.4118e-05
8.5500e+03,1.4173e-05
8.5600e+03,1.4193e-05
8.5700e+03,1.4196e-05
8.5800e+03,1.4227e-05
8.5900e+03,1.4291e-05
8.6000e+03,1.4321e-05
8.6100e+03,1.4276e-05
8.6200e+03,1.4192e-05
8.6300e+03,1.4112e-05
8.6400e+03,1.4038e-05
8.6500e+03,1.3951e-05
8.6600e+03,1.3834e-05
8.6700e+03,1.3681e-05
8.6800e+03,1.3527e-05
8.6900e+03,1.3452e-05
8.7000e+03,1.3520e-05
8.7100e+03,1.3729e-05
8.7200e+03,1.4052e-05
8.7300e+03,1.4424e-05
8.7400e+03,1.4737e-05
8.7500e+03,1.4908e-05
8.7600e+03,1.4884e-05
8.7700e+03,1.4606e-05
8.7800e+03,1.4072e-05
8.7900e+03,1.3395e-05
8.8000e+03,1.2765e-05
8.8100e+03,1.2373e-05
8.8200e+03,1.2343e-05
8.8300e+03,1.2673e-05
8.8400e+03,1.3212e-05
8.8500e+03,1.3725e-05
8.8600e+03,1.4008e-05
8.8700e+03,1.3966e-05
8.8800e+03,1.3659e-05
8.8900e+03,1.3249e-05
8.9000e+03,1.2932e-05
8.9100e+03,1.2836e-05
8.9200e+03,1.2924e-05
8.9300e+03,1.3069e-05
8.9400e+03,1.3179e-05
8.9500e+03,1.3213e-05
8.9600e+03,1.3155e-05
8.9700e+03,1.3043e-05
8.9800e+03,1.2949e-05
8.9900e+03,1.2905e-05
9.0000e+03,1.2902e-05
9.0100e+03,1.2936e-05
9.0200e+03,1.3015e-05
9.0300e+03,1.3141e-05
9.0400e+03,1.3280e-05
9.0500e+03,1.3376e-05
9.0600e+03,1.3418e-05
9.0700e+03,1.3393e-05
