# Time , Side-Flux
0.0000e+00,0.0000e+00
1.0000e+01,1.7334e-07
2.0000e+01,2.8733e-07
3.0000e+01,3.3408e-07
4.0000e+01,3.4495e-07
5.0000e+01,3.4860e-07
6.0000e+01,3.5399e-07
7.0000e+01,3.5941e-07
8.0000e+01,3.6302e-07
9.0000e+01,3.6519e-07
1.0000e+02,3.6672e-07
1.1000e+02,3.6795e-07
1.2000e+02,3.6890e-07
1.3000e+02,3.6961e-07
1.4000e+02,3.7014e-07
1.5000e+02,3.7056e-07
1.6000e+02,3.7090e-07
1.7000e+02,3.7116e-07
1.8000e+02,3.7137e-07
1.9000e+02,3.7154e-07
2.0000e+02,3.7169e-07
2.1000e+02,3.7183e-07
2.2000e+02,3.7196e-07
2.3000e+02,3.7205e-07
2.4000e+02,3.7211e-07
2.5000e+02,3.7215e-07
2.6000e+02,3.7217e-07
2.7000e+02,3.7219e-07
2.8000e+02,3.7221e-07
2.9000e+02,3.7223e-07
3.0000e+02,3.7230e-07
3.1000e+02,3.7234e-07
3.2000e+02,3.7230e-07
3.3000e+02,3.7227e-07
3.4000e+02,3.7238e-07
3.5000e+02,3.7249e-07
3.6000e+02,3.7234e-07
3.7000e+02,3.7199e-07
3.8000e+02,3.7178e-07
3.9000e+02,3.7189e-07
4.0000e+02,3.7212e-07
4.1000e+02,3.7220e-07
4.2000e+02,3.7208e-07
4.3000e+02,3.7193e-07
4.4000e+02,3.7191e-07
4.5000e+02,3.7206e-07
4.6000e+02,3.7228e-07
4.7000e+02,3.7243e-07
4.8000e+02,3.7245e-07
4.9000e+02,3.7237e-07
5.0000e+02,3.7229e-07
5.1000e+02,3.7223e-07
5.2000e+02,3.7221e-07
5.3000e+02,3.7223e-07
5.4000e+02,3.7225e-07
5.5000e+02,3.7224e-07
5.6000e+02,3.7215e-07
5.7000e+02,3.7198e-07
5.8000e+02,3.7175e-07
5.9000e+02,3.7148e-07
6.0000e+02,3.7120e-07
6.1000e+02,3.7104e-07
6.2000e+02,3.7120e-07
6.3000e+02,3.7165e-07
6.4000e+02,3.7194e-07
6.5000e+02,3.7157e-07
6.6000e+02,3.7074e-07
6.7000e+02,3.7030e-07
6.8000e+02,3.7095e-07
6.9000e+02,3.7231e-07
7.0000e+02,3.7302e-07
7.1000e+02,3.7218e-07
7.2000e+02,3.7045e-07
7.3000e+02,3.6946e-07
7.4000e+02,3.7014e-07
7.5000e+02,3.7184e-07
7.6000e+02,3.7309e-07
7.7000e+02,3.7298e-07
7.8000e+02,3.7171e-07
7.9000e+02,3.7012e-07
8.0000e+02,3.6894e-07
8.1000e+02,3.6867e-07
8.2000e+02,3.6945e-07
8.3000e+02,3.7089e-07
8.4000e+02,3.7227e-07
8.5000e+02,3.7300e-07
8.6000e+02,3.7285e-07
8.7000e+02,3.7205e-07
8.8000e+02,3.7125e-07
8.9000e+02,3.7082e-07
9.0000e+02,3.7031e-07
9.1000e+02,3.6907e-07
9.2000e+02,3.6746e-07
9.3000e+02,3.6683e-07
9.4000e+02,3.6787e-07
9.5000e+02,3.6980e-07
9.6000e+02,3.7135e-07
9.7000e+02,3.7213e-07
9.8000e+02,3.7250e-07
9.9000e+02,3.7277e-07
1.0000e+03,3.7269e-07
1.0100e+03,3.7176e-07
1.0200e+03,3.6957e-07
1.0300e+03,3.6666e-07
1.0400e+03,3.6487e-07
1.0500e+03,3.6545e-07
1.0600e+03,3.6730e-07
1.0700e+03,3.6829e-07
1.0800e+03,3.6768e-07
1.0900e+03,3.6661e-07
1.1000e+03,3.6686e-07
1.1100e+03,3.6905e-07
1.1200e+03,3.7180e-07
1.1300e+03,3.7319e-07
1.1400e+03,3.7280e-07
1.1500e+03,3.7158e-07
1.1600e+03,3.7040e-07
1.1700e+03,3.6955e-07
1.1800e+03,3.6922e-07
1.1900e+03,3.6930e-07
1.2000e+03,3.6924e-07
1.2100e+03,3.6864e-07
1.2200e+03,3.6770e-07
1.2300e+03,3.6703e-07
1.2400e+03,3.6707e-07
1.2500e+03,3.6799e-07
1.2600e+03,3.6951e-07
1.2700e+03,3.7082e-07
1.2800e+03,3.7104e-07
1.2900e+03,3.7013e-07
1.3000e+03,3.6897e-07
1.3100e+03,3.6840e-07
1.3200e+03,3.6829e-07
1.3300e+03,3.6790e-07
1.3400e+03,3.6703e-07
1.3500e+03,3.6635e-07
1.3600e+03,3.6677e-07
1.3700e+03,3.6832e-07
1.3800e+03,3.6998e-07
1.3900e+03,3.7075e-07
1.4000e+03,3.7059e-07
1.4100e+03,3.7009e-07
1.4200e+03,3.6966e-07
1.4300e+03,3.6933e-07
1.4400e+03,3.6910e-07
1.4500e+03,3.6898e-07
1.4600e+03,3.6899e-07
1.4700e+03,3.6905e-07
1.4800e+03,3.6905e-07
1.4900e+03,3.6899e-07
1.5000e+03,3.6895e-07
1.5100e+03,3.6895e-07
1.5200e+03,3.6895e-07
1.5300e+03,3.6891e-07
1.5400e+03,3.6885e-07
1.5500e+03,3.6882e-07
1.5600e+03,3.6887e-07
1.5700e+03,3.6898e-07
1.5800e+03,3.6904e-07
1.5900e+03,3.6886e-07
1.6000e+03,3.6830e-07
1.6100e+03,3.6753e-07
1.6200e+03,3.6701e-07
1.6300e+03,3.6715e-07
1.6400e+03,3.6790e-07
1.6500e+03,3.6880e-07
1.6600e+03,3.6943e-07
1.6700e+03,3.6969e-07
1.6800e+03,3.6964e-07
1.6900e+03,3.6925e-07
1.7000e+03,3.6834e-07
1.7100e+03,3.6719e-07
1.7200e+03,3.6655e-07
1.7300e+03,3.6684e-07
1.7400e+03,3.6767e-07
1.7500e+03,3.6843e-07
1.7600e+03,3.6892e-07
1.7700e+03,3.6919e-07
1.7800e+03,3.6931e-07
1.7900e+03,3.6924e-07
1.8000e+03,3.6885e-07
1.8100e+03,3.6807e-07
1.8200e+03,3.6718e-07
1.8300e+03,3.6654e-07
1.8400e+03,3.6635e-07
1.8500e+03,3.6666e-07
1.8600e+03,3.6751e-07
1.8700e+03,3.6862e-07
1.8800e+03,3.6938e-07
1.8900e+03,3.6934e-07
1.9000e+03,3.6860e-07
1.9100e+03,3.6775e-07
1.9200e+03,3.6719e-07
1.9300e+03,3.6698e-07
1.9400e+03,3.6707e-07
1.9500e+03,3.6752e-07
1.9600e+03,3.6817e-07
1.9700e+03,3.6851e-07
1.9800e+03,3.6818e-07
1.9900e+03,3.6735e-07
2.0000e+03,3.6652e-07
2.0100e+03,3.6623e-07
2.0200e+03,3.6690e-07
2.0300e+03,3.6837e-07
2.0400e+03,3.6948e-07
2.0500e+03,3.6898e-07
2.0600e+03,3.6723e-07
2.0700e+03,3.6611e-07
2.0800e+03,3.6642e-07
2.0900e+03,3.6696e-07
2.1000e+03,3.6683e-07
2.1100e+03,3.6678e-07
2.1200e+03,3.6718e-07
2.1300e+03,3.6689e-07
2.1400e+03,3.6533e-07
2.1500e+03,3.6397e-07
2.1600e+03,3.6428e-07
2.1700e+03,3.6540e-07
2.1800e+03,3.6555e-07
2.1900e+03,3.6469e-07
2.2000e+03,3.6450e-07
2.2100e+03,3.6602e-07
2.2200e+03,3.6859e-07
2.2300e+03,3.7063e-07
2.2400e+03,3.7109e-07
2.2500e+03,3.7014e-07
2.2600e+03,3.6881e-07
2.2700e+03,3.6798e-07
2.2800e+03,3.6765e-07
2.2900e+03,3.6737e-07
2.3000e+03,3.6702e-07
2.3100e+03,3.6686e-07
2.3200e+03,3.6688e-07
2.3300e+03,3.6676e-07
2.3400e+03,3.6664e-07
2.3500e+03,3.6690e-07
2.3600e+03,3.6737e-07
2.3700e+03,3.6743e-07
2.3800e+03,3.6692e-07
2.3900e+03,3.6631e-07
2.4000e+03,3.6594e-07
2.4100e+03,3.6569e-07
2.4200e+03,3.6539e-07
2.4300e+03,3.6515e-07
2.4400e+03,3.6508e-07
2.4500e+03,3.6513e-07
2.4600e+03,3.6519e-07
2.4700e+03,3.6531e-07
2.4800e+03,3.6560e-07
2.4900e+03,3.6603e-07
2.5000e+03,3.6646e-07
2.5100e+03,3.6674e-07
2.5200e+03,3.6681e-07
2.5300e+03,3.6666e-07
2.5400e+03,3.6639e-07
2.5500e+03,3.6613e-07
2.5600e+03,3.6592e-07
2.5700e+03,3.6574e-07
2.5800e+03,3.6560e-07
2.5900e+03,3.6562e-07
2.6000e+03,3.6586e-07
2.6100e+03,3.6621e-07
2.6200e+03,3.6646e-07
2.6300e+03,3.6644e-07
2.6400e+03,3.6611e-07
2.6500e+03,3.6549e-07
2.6600e+03,3.6477e-07
2.6700e+03,3.6442e-07
2.6800e+03,3.6487e-07
2.6900e+03,3.6589e-07
2.7000e+03,3.6648e-07
2.7100e+03,3.6586e-07
2.7200e+03,3.6435e-07
2.7300e+03,3.6304e-07
2.7400e+03,3.6268e-07
2.7500e+03,3.6317e-07
2.7600e+03,3.6398e-07
2.7700e+03,3.6464e-07
2.7800e+03,3.6490e-07
2.7900e+03,3.6480e-07
2.8000e+03,3.6487e-07
2.8100e+03,3.6559e-07
2.8200e+03,3.6663e-07
2.8300e+03,3.6716e-07
2.8400e+03,3.6700e-07
2.8500e+03,3.6675e-07
2.8600e+03,3.6671e-07
2.8700e+03,3.6609e-07
2.8800e+03,3.6404e-07
2.8900e+03,3.6123e-07
2.9000e+03,3.5970e-07
2.9100e+03,3.6074e-07
2.9200e+03,3.6343e-07
2.9300e+03,3.6596e-07
2.9400e+03,3.6791e-07
2.9500e+03,3.7042e-07
2.9600e+03,3.7381e-07
2.9700e+03,3.7628e-07
2.9800e+03,3.7592e-07
2.9900e+03,3.7321e-07
3.0000e+03,3.7041e-07
3.0100e+03,3.6895e-07
3.0200e+03,3.6862e-07
3.0300e+03,3.6885e-07
3.0400e+03,3.6953e-07
3.0500e+03,3.7023e-07
3.0600e+03,3.6978e-07
3.0700e+03,3.6736e-07
3.0800e+03,3.6346e-07
3.0900e+03,3.5934e-07
3.1000e+03,3.5597e-07
3.1100e+03,3.5368e-07
3.1200e+03,3.5234e-07
3.1300e+03,3.5139e-07
3.1400e+03,3.5005e-07
3.1500e+03,3.4785e-07
3.1600e+03,3.4530e-07
3.1700e+03,3.4383e-07
3.1800e+03,3.4475e-07
3.1900e+03,3.4783e-07
3.2000e+03,3.5125e-07
3.2100e+03,3.5325e-07
3.2200e+03,3.5370e-07
3.2300e+03,3.5350e-07
3.2400e+03,3.5310e-07
3.2500e+03,3.5216e-07
3.2600e+03,3.5049e-07
3.2700e+03,3.4846e-07
3.2800e+03,3.4659e-07
3.2900e+03,3.4531e-07
3.3000e+03,3.4493e-07
3.3100e+03,3.4543e-07
3.3200e+03,3.4627e-07
3.3300e+03,3.4698e-07
3.3400e+03,3.4743e-07
3.3500e+03,3.4769e-07
3.3600e+03,3.4777e-07
3.3700e+03,3.4765e-07
3.3800e+03,3.4747e-07
3.3900e+03,3.4740e-07
3.4000e+03,3.4746e-07
3.4100e+03,3.4757e-07
3.4200e+03,3.4768e-07
3.4300e+03,3.4783e-07
3.4400e+03,3.4821e-07
3.4500e+03,3.4903e-07
3.4600e+03,3.5022e-07
3.4700e+03,3.5148e-07
3.4800e+03,3.5241e-07
3.4900e+03,3.5277e-07
3.5000e+03,3.5251e-07
3.5100e+03,3.5176e-07
3.5200e+03,3.5073e-07
3.5300e+03,3.4973e-07
3.5400e+03,3.4904e-07
3.5500e+03,3.4862e-07
3.5600e+03,3.4824e-07
3.5700e+03,3.4782e-07
3.5800e+03,3.4752e-07
3.5900e+03,3.4743e-07
3.6000e+03,3.4745e-07
3.6100e+03,3.4745e-07
3.6200e+03,3.4737e-07
3.6300e+03,3.4719e-07
3.6400e+03,3.4692e-07
3.6500e+03,3.4655e-07
3.6600e+03,3.4615e-07
3.6700e+03,3.4592e-07
3.6800e+03,3.4599e-07
3.6900e+03,3.4625e-07
3.7000e+03,3.4630e-07
3.7100e+03,3.4568e-07
3.7200e+03,3.4424e-07
3.7300e+03,3.4259e-07
3.7400e+03,3.4197e-07
3.7500e+03,3.4316e-07
3.7600e+03,3.4584e-07
3.7700e+03,3.4909e-07
3.7800e+03,3.5208e-07
3.7900e+03,3.5435e-07
3.8000e+03,3.5564e-07
3.8100e+03,3.5571e-07
3.8200e+03,3.5433e-07
3.8300e+03,3.5184e-07
3.8400e+03,3.4964e-07
3.8500e+03,3.4931e-07
3.8600e+03,3.5081e-07
3.8700e+03,3.5223e-07
3.8800e+03,3.5171e-07
3.8900e+03,3.4919e-07
3.9000e+03,3.4639e-07
3.9100e+03,3.4510e-07
3.9200e+03,3.4567e-07
3.9300e+03,3.4719e-07
3.9400e+03,3.4858e-07
3.9500e+03,3.4935e-07
3.9600e+03,3.4979e-07
3.9700e+03,3.5080e-07
3.9800e+03,3.5317e-07
3.9900e+03,3.5671e-07
4.0000e+03,3.6031e-07
4.0100e+03,3.6324e-07
4.0200e+03,3.6580e-07
4.0300e+03,3.6851e-07
4.0400e+03,3.7148e-07
4.0500e+03,3.7469e-07
4.0600e+03,3.7819e-07
4.0700e+03,3.8179e-07
4.0800e+03,3.8486e-07
4.0900e+03,3.8711e-07
4.1000e+03,3.8916e-07
4.1100e+03,3.9210e-07
4.1200e+03,3.9640e-07
4.1300e+03,4.0153e-07
4.1400e+03,4.0650e-07
4.1500e+03,4.1066e-07
4.1600e+03,4.1395e-07
4.1700e+03,4.1652e-07
4.1800e+03,4.1849e-07
4.1900e+03,4.1998e-07
4.2000e+03,4.2122e-07
4.2100e+03,4.2254e-07
4.2200e+03,4.2398e-07
4.2300e+03,4.2523e-07
4.2400e+03,4.2587e-07
4.2500e+03,4.2585e-07
4.2600e+03,4.2550e-07
4.2700e+03,4.2517e-07
4.2800e+03,4.2500e-07
4.2900e+03,4.2490e-07
4.3000e+03,4.2481e-07
4.3100e+03,4.2466e-07
4.3200e+03,4.2443e-07
4.3300e+03,4.2406e-07
4.3400e+03,4.2363e-07
4.3500e+03,4.2328e-07
4.3600e+03,4.2312e-07
4.3700e+03,4.2315e-07
4.3800e+03,4.2330e-07
4.3900e+03,4.2352e-07
4.4000e+03,4.2373e-07
4.4100e+03,4.2392e-07
4.4200e+03,4.2407e-07
4.4300e+03,4.2411e-07
4.4400e+03,4.2392e-07
4.4500e+03,4.2355e-07
4.4600e+03,4.2323e-07
4.4700e+03,4.2316e-07
4.4800e+03,4.2329e-07
4.4900e+03,4.2338e-07
4.5000e+03,4.2330e-07
4.5100e+03,4.2312e-07
4.5200e+03,4.2301e-07
4.5300e+03,4.2301e-07
4.5400e+03,4.2299e-07
4.5500e+03,4.2287e-07
4.5600e+03,4.2276e-07
4.5700e+03,4.2283e-07
4.5800e+03,4.2315e-07
4.5900e+03,4.2351e-07
4.6000e+03,4.2360e-07
4.6100e+03,4.2334e-07
4.6200e+03,4.2288e-07
4.6300e+03,4.2243e-07
4.6400e+03,4.2210e-07
4.6500e+03,4.2196e-07
4.6600e+03,4.2209e-07
4.6700e+03,4.2240e-07
4.6800e+03,4.2257e-07
4.6900e+03,4.2226e-07
4.7000e+03,4.2142e-07
4.7100e+03,4.2035e-07
4.7200e+03,4.1940e-07
4.7300e+03,4.1867e-07
4.7400e+03,4.1813e-07
4.7500e+03,4.1781e-07
4.7600e+03,4.1770e-07
4.7700e+03,4.1742e-07
4.7800e+03,4.1647e-07
4.7900e+03,4.1479e-07
4.8000e+03,4.1300e-07
4.8100e+03,4.1210e-07
4.8200e+03,4.1276e-07
4.8300e+03,4.1465e-07
4.8400e+03,4.1636e-07
4.8500e+03,4.1660e-07
4.8600e+03,4.1555e-07
4.8700e+03,4.1455e-07
4.8800e+03,4.1440e-07
4.8900e+03,4.1456e-07
4.9000e+03,4.1426e-07
4.9100e+03,4.1351e-07
4.9200e+03,4.1298e-07
4.9300e+03,4.1328e-07
4.9400e+03,4.1464e-07
4.9500e+03,4.1709e-07
4.9600e+03,4.2037e-07
4.9700e+03,4.2368e-07
4.9800e+03,4.2588e-07
4.9900e+03,4.2608e-07
5.0000e+03,4.2413e-07
5.0100e+03,4.2106e-07
5.0200e+03,4.1925e-07
5.0300e+03,4.2115e-07
5.0400e+03,4.2691e-07
5.0500e+03,4.3343e-07
5.0600e+03,4.3680e-07
5.0700e+03,4.3573e-07
5.0800e+03,4.3204e-07
5.0900e+03,4.2803e-07
5.1000e+03,4.2460e-07
5.1100e+03,4.2214e-07
5.1200e+03,4.2133e-07
5.1300e+03,4.2184e-07
5.1400e+03,4.2151e-07
5.1500e+03,4.1865e-07
5.1600e+03,4.1408e-07
5.1700e+03,4.0989e-07
5.1800e+03,4.0723e-07
5.1900e+03,4.0572e-07
5.2000e+03,4.0458e-07
5.2100e+03,4.0362e-07
5.2200e+03,4.0326e-07
5.2300e+03,4.0388e-07
5.2400e+03,4.0570e-07
5.2500e+03,4.0865e-07
5.2600e+03,4.1210e-07
5.2700e+03,4.1502e-07
5.2800e+03,4.1647e-07
5.2900e+03,4.1612e-07
5.3000e+03,4.1463e-07
5.3100e+03,4.1334e-07
5.3200e+03,4.1294e-07
5.3300e+03,4.1309e-07
5.3400e+03,4.1316e-07
5.3500e+03,4.1301e-07
5.3600e+03,4.1280e-07
5.3700e+03,4.1267e-07
5.3800e+03,4.1256e-07
5.3900e+03,4.1217e-07
5.4000e+03,4.1121e-07
5.4100e+03,4.0993e-07
5.4200e+03,4.0911e-07
5.4300e+03,4.0927e-07
5.4400e+03,4.0988e-07
5.4500e+03,4.0976e-07
5.4600e+03,4.0833e-07
5.4700e+03,4.0623e-07
5.4800e+03,4.0449e-07
5.4900e+03,4.0363e-07
5.5000e+03,4.0357e-07
5.5100e+03,4.0378e-07
5.5200e+03,4.0347e-07
5.5300e+03,4.0209e-07
5.5400e+03,3.9994e-07
5.5500e+03,3.9792e-07
5.5600e+03,3.9674e-07
5.5700e+03,3.9643e-07
5.5800e+03,3.9658e-07
5.5900e+03,3.9676e-07
5.6000e+03,3.9683e-07
5.6100e+03,3.9681e-07
5.6200e+03,3.9676e-07
5.6300e+03,3.9669e-07
5.6400e+03,3.9656e-07
5.6500e+03,3.9641e-07
5.6600e+03,3.9635e-07
5.6700e+03,3.9643e-07
5.6800e+03,3.9659e-07
5.6900e+03,3.9672e-07
5.7000e+03,3.9679e-07
5.7100e+03,3.9684e-07
5.7200e+03,3.9681e-07
5.7300e+03,3.9655e-07
5.7400e+03,3.9585e-07
5.7500e+03,3.9463e-07
5.7600e+03,3.9314e-07
5.7700e+03,3.9198e-07
5.7800e+03,3.9175e-07
5.7900e+03,3.9251e-07
5.8000e+03,3.9356e-07
5.8100e+03,3.9391e-07
5.8200e+03,3.9301e-07
5.8300e+03,3.9088e-07
5.8400e+03,3.8791e-07
5.8500e+03,3.8472e-07
5.8600e+03,3.8237e-07
5.8700e+03,3.8163e-07
5.8800e+03,3.8225e-07
5.8900e+03,3.8310e-07
5.9000e+03,3.8327e-07
5.9100e+03,3.8265e-07
5.9200e+03,3.8183e-07
5.9300e+03,3.8144e-07
5.9400e+03,3.8151e-07
5.9500e+03,3.8155e-07
5.9600e+03,3.8126e-07
5.9700e+03,3.8091e-07
5.9800e+03,3.8086e-07
5.9900e+03,3.8106e-07
6.0000e+03,3.8124e-07
6.0100e+03,3.8121e-07
6.0200e+03,3.8088e-07
6.0300e+03,3.8026e-07
6.0400e+03,3.7955e-07
6.0500e+03,3.7873e-07
6.0600e+03,3.7728e-07
6.0700e+03,3.7487e-07
6.0800e+03,3.7230e-07
6.0900e+03,3.7115e-07
6.1000e+03,3.7225e-07
6.1100e+03,3.7491e-07
6.1200e+03,3.7788e-07
6.1300e+03,3.8068e-07
6.1400e+03,3.8319e-07
6.1500e+03,3.8420e-07
6.1600e+03,3.8198e-07
6.1700e+03,3.7667e-07
6.1800e+03,3.7045e-07
6.1900e+03,3.6533e-07
6.2000e+03,3.6176e-07
6.2100e+03,3.5981e-07
6.2200e+03,3.6013e-07
6.2300e+03,3.6295e-07
6.2400e+03,3.6689e-07
6.2500e+03,3.6993e-07
6.2600e+03,3.7122e-07
6.2700e+03,3.7122e-07
6.2800e+03,3.7053e-07
6.2900e+03,3.6939e-07
6.3000e+03,3.6810e-07
6.3100e+03,3.6698e-07
6.3200e+03,3.6615e-07
6.3300e+03,3.6566e-07
6.3400e+03,3.6552e-07
6.3500e+03,3.6562e-07
6.3600e+03,3.6578e-07
6.3700e+03,3.6598e-07
6.3800e+03,3.6628e-07
6.3900e+03,3.6658e-07
6.4000e+03,3.6671e-07
6.4100e+03,3.6663e-07
6.4200e+03,3.6645e-07
6.4300e+03,3.6620e-07
6.4400e+03,3.6589e-07
6.4500e+03,3.6556e-07
6.4600e+03,3.6514e-07
6.4700e+03,3.6461e-07
6.4800e+03,3.6447e-07
6.4900e+03,3.6549e-07
6.5000e+03,3.6734e-07
6.5100e+03,3.6854e-07
6.5200e+03,3.6805e-07
6.5300e+03,3.6627e-07
6.5400e+03,3.6434e-07
6.5500e+03,3.6324e-07
6.5600e+03,3.6357e-07
6.5700e+03,3.6533e-07
6.5800e+03,3.6788e-07
6.5900e+03,3.7017e-07
6.6000e+03,3.7135e-07
6.6100e+03,3.7135e-07
6.6200e+03,3.7078e-07
6.6300e+03,3.7039e-07
6.6400e+03,3.7040e-07
6.6500e+03,3.7064e-07
6.6600e+03,3.7084e-07
6.6700e+03,3.7091e-07
6.6800e+03,3.7092e-07
6.6900e+03,3.7093e-07
6.7000e+03,3.7096e-07
6.7100e+03,3.7102e-07
6.7200e+03,3.7104e-07
6.7300e+03,3.7095e-07
6.7400e+03,3.7070e-07
6.7500e+03,3.7033e-07
6.7600e+03,3.6991e-07
6.7700e+03,3.6951e-07
6.7800e+03,3.6918e-07
6.7900e+03,3.6882e-07
6.8000e+03,3.6824e-07
6.8100e+03,3.6740e-07
6.8200e+03,3.6652e-07
6.8300e+03,3.6587e-07
6.8400e+03,3.6555e-07
6.8500e+03,3.6549e-07
6.8600e+03,3.6562e-07
6.8700e+03,3.6587e-07
6.8800e+03,3.6609e-07
6.8900e+03,3.6625e-07
6.9000e+03,3.6633e-07
6.9100e+03,3.6605e-07
6.9200e+03,3.6503e-07
6.9300e+03,3.6332e-07
6.9400e+03,3.6166e-07
6.9500e+03,3.6089e-07
6.9600e+03,3.6122e-07
6.9700e+03,3.6221e-07
6.9800e+03,3.6333e-07
6.9900e+03,3.6434e-07
7.0000e+03,3.6491e-07
7.0100e+03,3.6454e-07
7.0200e+03,3.6310e-07
7.0300e+03,3.6150e-07
7.0400e+03,3.6120e-07
7.0500e+03,3.6276e-07
7.0600e+03,3.6511e-07
7.0700e+03,3.6672e-07
7.0800e+03,3.6734e-07
7.0900e+03,3.6766e-07
7.1000e+03,3.6764e-07
7.1100e+03,3.6646e-07
7.1200e+03,3.6417e-07
7.1300e+03,3.6229e-07
7.1400e+03,3.6234e-07
7.1500e+03,3.6455e-07
7.1600e+03,3.6779e-07
7.1700e+03,3.6979e-07
7.1800e+03,3.6840e-07
7.1900e+03,3.6410e-07
7.2000e+03,3.6032e-07
7.2100e+03,3.6039e-07
7.2200e+03,3.6470e-07
7.2300e+03,3.7111e-07
7.2400e+03,3.7680e-07
7.2500e+03,3.7988e-07
7.2600e+03,3.8027e-07
7.2700e+03,3.7927e-07
7.2800e+03,3.7810e-07
7.2900e+03,3.7719e-07
7.3000e+03,3.7640e-07
7.3100e+03,3.7566e-07
7.3200e+03,3.7522e-07
7.3300e+03,3.7536e-07
7.3400e+03,3.7596e-07
7.3500e+03,3.7636e-07
7.3600e+03,3.7607e-07
7.3700e+03,3.7555e-07
7.3800e+03,3.7568e-07
7.3900e+03,3.7639e-07
7.4000e+03,3.7628e-07
7.4100e+03,3.7405e-07
7.4200e+03,3.7036e-07
7.4300e+03,3.6739e-07
7.4400e+03,3.6640e-07
7.4500e+03,3.6665e-07
7.4600e+03,3.6716e-07
7.4700e+03,3.6815e-07
7.4800e+03,3.6998e-07
7.4900e+03,3.7168e-07
7.5000e+03,3.7181e-07
7.5100e+03,3.7011e-07
7.5200e+03,3.6795e-07
7.5300e+03,3.6691e-07
7.5400e+03,3.6739e-07
7.5500e+03,3.6877e-07
7.5600e+03,3.7027e-07
7.5700e+03,3.7143e-07
7.5800e+03,3.7206e-07
7.5900e+03,3.7224e-07
7.6000e+03,3.7222e-07
7.6100e+03,3.7216e-07
7.6200e+03,3.7196e-07
7.6300e+03,3.7149e-07
7.6400e+03,3.7091e-07
7.6500e+03,3.7060e-07
7.6600e+03,3.7071e-07
7.6700e+03,3.7104e-07
7.6800e+03,3.7135e-07
7.6900e+03,3.7162e-07
7.7000e+03,3.7189e-07
7.7100e+03,3.7219e-07
7.7200e+03,3.7252e-07
7.7300e+03,3.7289e-07
7.7400e+03,3.7308e-07
7.7500e+03,3.7288e-07
7.7600e+03,3.7240e-07
7.7700e+03,3.7210e-07
7.7800e+03,3.7231e-07
7.7900e+03,3.7278e-07
7.8000e+03,3.7282e-07
7.8100e+03,3.7198e-07
7.8200e+03,3.7062e-07
7.8300e+03,3.6962e-07
7.8400e+03,3.6948e-07
7.8500e+03,3.6985e-07
7.8600e+03,3.7009e-07
7.8700e+03,3.6989e-07
7.8800e+03,3.6919e-07
7.8900e+03,3.6807e-07
7.9000e+03,3.6690e-07
7.9100e+03,3.6603e-07
7.9200e+03,3.6533e-07
7.9300e+03,3.6443e-07
7.9400e+03,3.6357e-07
7.9500e+03,3.6336e-07
7.9600e+03,3.6401e-07
7.9700e+03,3.6488e-07
7.9800e+03,3.6516e-07
7.9900e+03,3.6472e-07
8.0000e+03,3.6426e-07
8.0100e+03,3.6445e-07
8.0200e+03,3.6522e-07
8.0300e+03,3.6607e-07
8.0400e+03,3.6695e-07
8.0500e+03,3.6827e-07
8.0600e+03,3.6988e-07
8.0700e+03,3.7098e-07
8.0800e+03,3.7138e-07
8.0900e+03,3.7212e-07
8.1000e+03,3.7422e-07
8.1100e+03,3.7742e-07
8.1200e+03,3.8041e-07
8.1300e+03,3.8208e-07
8.1400e+03,3.8235e-07
8.1500e+03,3.8190e-07
8.1600e+03,3.8135e-07
8.1700e+03,3.8097e-07
8.1800e+03,3.8092e-07
8.1900e+03,3.8146e-07
8.2000e+03,3.8259e-07
8.2100e+03,3.8404e-07
8.2200e+03,3.8576e-07
8.2300e+03,3.8830e-07
8.2400e+03,3.9218e-07
8.2500e+03,3.9723e-07
8.2600e+03,4.0270e-07
8.2700e+03,4.0784e-07
8.2800e+03,4.1209e-07
8.2900e+03,4.1512e-07
8.3000e+03,4.1690e-07
8.3100e+03,4.1757e-07
8.3200e+03,4.1745e-07
8.3300e+03,4.1696e-07
8.3400e+03,4.1656e-07
8.3500e+03,4.1644e-07
8.3600e+03,4.1641e-07
8.3700e+03,4.1623e-07
8.3800e+03,4.1582e-07
8.3900e+03,4.1525e-07
8.4000e+03,4.1459e-07
8.4100e+03,4.1394e-07
8.4200e+03,4.1344e-07
8.4300e+03,4.1307e-07
8.4400e+03,4.1268e-07
8.4500e+03,4.1226e-07
8.4600e+03,4.1194e-07
8.4700e+03,4.1170e-07
8.4800e+03,4.1145e-07
8.4900e+03,4.1131e-07
8.5000e+03,4.1149e-07
8.5100e+03,4.1202e-07
8.5200e+03,4.1285e-07
8.5300e+03,4.1411e-07
8.5400e+03,4.1570e-07
8.5500e+03,4.1720e-07
8.5600e+03,4.1838e-07
8.5700e+03,4.1946e-07
8.5800e+03,4.2045e-07
8.5900e+03,4.2089e-07
8.6000e+03,4.2048e-07
8.6100e+03,4.1967e-07
8.6200e+03,4.1916e-07
8.6300e+03,4.1927e-07
8.6400e+03,4.1970e-07
8.6500e+03,4.1988e-07
8.6600e+03,4.1963e-07
8.6700e+03,4.1919e-07
8.6800e+03,4.1878e-07
8.6900e+03,4.1840e-07
8.7000e+03,4.1805e-07
8.7100e+03,4.1771e-07
8.7200e+03,4.1738e-07
8.7300e+03,4.1719e-07
8.7400e+03,4.1722e-07
8.7500e+03,4.1724e-07
8.7600e+03,4.1682e-07
8.7700e+03,4.1583e-07
8.7800e+03,4.1461e-07
8.7900e+03,4.1359e-07
8.8000e+03,4.1311e-07
8.8100e+03,4.1341e-07
8.8200e+03,4.1461e-07
8.8300e+03,4.1633e-07
8.8400e+03,4.1766e-07
8.8500e+03,4.1797e-07
8.8600e+03,4.1754e-07
8.8700e+03,4.1711e-07
8.8800e+03,4.1702e-07
8.8900e+03,4.1721e-07
8.9000e+03,4.1741e-07
8.9100e+03,4.1735e-07
8.9200e+03,4.1689e-07
8.9300e+03,4.1613e-07
8.9400e+03,4.1538e-07
8.9500e+03,4.1499e-07
8.9600e+03,4.1509e-07
8.9700e+03,4.1556e-07
8.9800e+03,4.1624e-07
8.9900e+03,4.1685e-07
9.0000e+03,4.1701e-07
9.0100e+03,4.1657e-07
9.0200e+03,4.1584e-07
9.0300e+03,4.1518e-07
9.0400e+03,4.1470e-07
9.0500e+03,4.1438e-07
9.0600e+03,4.1423e-07
9.0700e+03,4.1418e-07
