# Time , Side-Flux
0.0000e+00,0.0000e+00
1.0000e+01,7.0665e-13
2.0000e+01,1.3675e-12
3.0000e+01,1.9467e-12
4.0000e+01,2.4246e-12
5.0000e+01,2.7980e-12
6.0000e+01,3.0761e-12
7.0000e+01,3.2755e-12
8.0000e+01,3.4141e-12
9.0000e+01,3.5088e-12
1.0000e+02,3.5732e-12
1.1000e+02,3.6174e-12
1.2000e+02,3.6485e-12
1.3000e+02,3.6715e-12
1.4000e+02,3.6894e-12
1.5000e+02,3.7040e-12
1.6000e+02,3.7167e-12
1.7000e+02,3.7280e-12
1.8000e+02,3.7382e-12
1.9000e+02,3.7476e-12
2.0000e+02,3.7561e-12
2.1000e+02,3.7639e-12
2.2000e+02,3.7709e-12
2.3000e+02,3.7774e-12
2.4000e+02,3.7834e-12
2.5000e+02,3.7892e-12
2.6000e+02,3.7948e-12
2.7000e+02,3.8005e-12
2.8000e+02,3.8063e-12
2.9000e+02,3.8121e-12
3.0000e+02,3.8179e-12
3.1000e+02,3.8236e-12
3.2000e+02,3.8290e-12
3.3000e+02,3.8341e-12
3.4000e+02,3.8388e-12
3.5000e+02,3.8430e-12
3.6000e+02,3.8467e-12
3.7000e+02,3.8498e-12
3.8000e+02,3.8522e-12
3.9000e+02,3.8537e-12
4.0000e+02,3.8545e-12
4.1000e+02,3.8550e-12
4.2000e+02,3.8556e-12
4.3000e+02,3.8563e-12
4.4000e+02,3.8571e-12
4.5000e+02,3.8577e-12
4.6000e+02,3.8579e-12
4.7000e+02,3.8576e-12
4.8000e+02,3.8568e-12
4.9000e+02,3.8558e-12
5.0000e+02,3.8546e-12
5.1000e+02,3.8535e-12
5.2000e+02,3.8524e-12
5.3000e+02,3.8514e-12
5.4000e+02,3.8506e-12
5.5000e+02,3.8501e-12
5.6000e+02,3.8502e-12
5.7000e+02,3.8510e-12
5.8000e+02,3.8528e-12
5.9000e+02,3.8556e-12
6.0000e+02,3.8589e-12
6.1000e+02,3.8621e-12
6.2000e+02,3.8642e-12
6.3000e+02,3.8644e-12
6.4000e+02,3.8619e-12
6.5000e+02,3.8565e-12
6.6000e+02,3.8487e-12
6.7000e+02,3.8392e-12
6.8000e+02,3.8291e-12
6.9000e+02,3.8198e-12
7.0000e+02,3.8123e-12
7.1000e+02,3.8074e-12
7.2000e+02,3.8053e-12
7.3000e+02,3.8060e-12
7.4000e+02,3.8087e-12
7.5000e+02,3.8127e-12
7.6000e+02,3.8172e-12
7.7000e+02,3.8217e-12
7.8000e+02,3.8261e-12
7.9000e+02,3.8307e-12
8.0000e+02,3.8357e-12
8.1000e+02,3.8410e-12
8.2000e+02,3.8466e-12
8.3000e+02,3.8515e-12
8.4000e+02,3.8551e-12
8.5000e+02,3.8565e-12
8.6000e+02,3.8554e-12
8.7000e+02,3.8516e-12
8.8000e+02,3.8457e-12
8.9000e+02,3.8384e-12
9.0000e+02,3.8307e-12
9.1000e+02,3.8234e-12
9.2000e+02,3.8173e-12
9.3000e+02,3.8126e-12
9.4000e+02,3.8092e-12
9.5000e+02,3.8067e-12
9.6000e+02,3.8040e-12
9.7000e+02,3.8000e-12
9.8000e+02,3.7936e-12
9.9000e+02,3.7840e-12
1.0000e+03,3.7716e-12
1.0100e+03,3.7577e-12
1.0200e+03,3.7446e-12
1.0300e+03,3.7355e-12
1.0400e+03,3.7334e-12
1.0500e+03,3.7406e-12
1.0600e+03,3.7582e-12
1.0700e+03,3.7858e-12
1.0800e+03,3.8212e-12
1.0900e+03,3.8608e-12
1.1000e+03,3.9003e-12
1.1100e+03,3.9354e-12
1.1200e+03,3.9627e-12
1.1300e+03,3.9802e-12
1.1400e+03,3.9873e-12
1.1500e+03,3.9847e-12
1.1600e+03,3.9735e-12
1.1700e+03,3.9554e-12
1.1800e+03,3.9321e-12
1.1900e+03,3.9064e-12
1.2000e+03,3.8811e-12
1.2100e+03,3.8592e-12
1.2200e+03,3.8433e-12
1.2300e+03,3.8347e-12
1.2400e+03,3.8333e-12
1.2500e+03,3.8379e-12
1.2600e+03,3.8462e-12
1.2700e+03,3.8566e-12
1.2800e+03,3.8678e-12
1.2900e+03,3.8801e-12
1.3000e+03,3.8941e-12
1.3100e+03,3.9110e-12
1.3200e+03,3.9310e-12
1.3300e+03,3.9535e-12
1.3400e+03,3.9764e-12
1.3500e+03,3.9967e-12
1.3600e+03,4.0115e-12
1.3700e+03,4.0182e-12
1.3800e+03,4.0161e-12
1.3900e+03,4.0060e-12
1.4000e+03,3.9901e-12
1.4100e+03,3.9715e-12
1.4200e+03,3.9530e-12
1.4300e+03,3.9365e-12
1.4400e+03,3.9230e-12
1.4500e+03,3.9125e-12
1.4600e+03,3.9047e-12
1.4700e+03,3.8988e-12
1.4800e+03,3.8942e-12
1.4900e+03,3.8903e-12
1.5000e+03,3.8866e-12
1.5100e+03,3.8826e-12
1.5200e+03,3.8779e-12
1.5300e+03,3.8723e-12
1.5400e+03,3.8655e-12
1.5500e+03,3.8574e-12
1.5600e+03,3.8480e-12
1.5700e+03,3.8376e-12
1.5800e+03,3.8267e-12
1.5900e+03,3.8162e-12
1.6000e+03,3.8073e-12
1.6100e+03,3.8011e-12
1.6200e+03,3.7984e-12
1.6300e+03,3.7995e-12
1.6400e+03,3.8039e-12
1.6500e+03,3.8104e-12
1.6600e+03,3.8177e-12
1.6700e+03,3.8247e-12
1.6800e+03,3.8313e-12
1.6900e+03,3.8382e-12
1.7000e+03,3.8466e-12
1.7100e+03,3.8577e-12
1.7200e+03,3.8719e-12
1.7300e+03,3.8883e-12
1.7400e+03,3.9054e-12
1.7500e+03,3.9212e-12
1.7600e+03,3.9341e-12
1.7700e+03,3.9430e-12
1.7800e+03,3.9478e-12
1.7900e+03,3.9490e-12
1.8000e+03,3.9472e-12
1.8100e+03,3.9429e-12
1.8200e+03,3.9359e-12
1.8300e+03,3.9260e-12
1.8400e+03,3.9128e-12
1.8500e+03,3.8965e-12
1.8600e+03,3.8778e-12
1.8700e+03,3.8581e-12
1.8800e+03,3.8393e-12
1.8900e+03,3.8233e-12
1.9000e+03,3.8116e-12
1.9100e+03,3.8052e-12
1.9200e+03,3.8042e-12
1.9300e+03,3.8075e-12
1.9400e+03,3.8128e-12
1.9500e+03,3.8172e-12
1.9600e+03,3.8179e-12
1.9700e+03,3.8129e-12
1.9800e+03,3.8018e-12
1.9900e+03,3.7856e-12
2.0000e+03,3.7662e-12
2.0100e+03,3.7458e-12
2.0200e+03,3.7259e-12
2.0300e+03,3.7074e-12
2.0400e+03,3.6901e-12
2.0500e+03,3.6743e-12
2.0600e+03,3.6600e-12
2.0700e+03,3.6481e-12
2.0800e+03,3.6392e-12
2.0900e+03,3.6344e-12
2.1000e+03,3.6348e-12
2.1100e+03,3.6419e-12
2.1200e+03,3.6573e-12
2.1300e+03,3.6827e-12
2.1400e+03,3.7192e-12
2.1500e+03,3.7674e-12
2.1600e+03,3.8261e-12
2.1700e+03,3.8921e-12
2.1800e+03,3.9605e-12
2.1900e+03,4.0249e-12
2.2000e+03,4.0793e-12
2.2100e+03,4.1188e-12
2.2200e+03,4.1412e-12
2.2300e+03,4.1466e-12
2.2400e+03,4.1374e-12
2.2500e+03,4.1171e-12
2.2600e+03,4.0897e-12
2.2700e+03,4.0588e-12
2.2800e+03,4.0277e-12
2.2900e+03,3.9986e-12
2.3000e+03,3.9731e-12
2.3100e+03,3.9518e-12
2.3200e+03,3.9347e-12
2.3300e+03,3.9214e-12
2.3400e+03,3.9114e-12
2.3500e+03,3.9040e-12
2.3600e+03,3.8989e-12
2.3700e+03,3.8958e-12
2.3800e+03,3.8942e-12
2.3900e+03,3.8929e-12
2.4000e+03,3.8908e-12
2.4100e+03,3.8867e-12
2.4200e+03,3.8801e-12
2.4300e+03,3.8715e-12
2.4400e+03,3.8624e-12
2.4500e+03,3.8545e-12
2.4600e+03,3.8491e-12
2.4700e+03,3.8469e-12
2.4800e+03,3.8478e-12
2.4900e+03,3.8506e-12
2.5000e+03,3.8542e-12
2.5100e+03,3.8572e-12
2.5200e+03,3.8589e-12
2.5300e+03,3.8588e-12
2.5400e+03,3.8572e-12
2.5500e+03,3.8543e-12
2.5600e+03,3.8508e-12
2.5700e+03,3.8469e-12
2.5800e+03,3.8429e-12
2.5900e+03,3.8388e-12
2.6000e+03,3.8345e-12
2.6100e+03,3.8299e-12
2.6200e+03,3.8249e-12
2.6300e+03,3.8195e-12
2.6400e+03,3.8138e-12
2.6500e+03,3.8084e-12
2.6600e+03,3.8038e-12
2.6700e+03,3.8007e-12
2.6800e+03,3.7998e-12
2.6900e+03,3.8015e-12
2.7000e+03,3.8061e-12
2.7100e+03,3.8131e-12
2.7200e+03,3.8215e-12
2.7300e+03,3.8299e-12
2.7400e+03,3.8363e-12
2.7500e+03,3.8392e-12
2.7600e+03,3.8375e-12
2.7700e+03,3.8308e-12
2.7800e+03,3.8198e-12
2.7900e+03,3.8057e-12
2.8000e+03,3.7897e-12
2.8100e+03,3.7725e-12
2.8200e+03,3.7548e-12
2.8300e+03,3.7366e-12
2.8400e+03,3.7186e-12
2.8500e+03,3.7018e-12
2.8600e+03,3.6877e-12
2.8700e+03,3.6786e-12
2.8800e+03,3.6767e-12
2.8900e+03,3.6838e-12
2.9000e+03,3.7008e-12
2.9100e+03,3.7269e-12
2.9200e+03,3.7599e-12
2.9300e+03,3.7967e-12
2.9400e+03,3.8335e-12
2.9500e+03,3.8671e-12
2.9600e+03,3.8956e-12
2.9700e+03,3.9178e-12
2.9800e+03,3.9340e-12
2.9900e+03,3.9448e-12
3.0000e+03,3.9513e-12
3.0100e+03,3.9550e-12
3.0200e+03,3.9575e-12
3.0300e+03,3.9610e-12
3.0400e+03,3.9670e-12
3.0500e+03,3.9763e-12
3.0600e+03,3.9877e-12
3.0700e+03,3.9981e-12
3.0800e+03,4.0029e-12
3.0900e+03,3.9980e-12
3.1000e+03,3.9808e-12
3.1100e+03,3.9515e-12
3.1200e+03,3.9130e-12
3.1300e+03,3.8701e-12
3.1400e+03,3.8282e-12
3.1500e+03,3.7922e-12
3.1600e+03,3.7650e-12
3.1700e+03,3.7480e-12
3.1800e+03,3.7401e-12
3.1900e+03,3.7394e-12
3.2000e+03,3.7433e-12
3.2100e+03,3.7498e-12
3.2200e+03,3.7584e-12
3.2300e+03,3.7695e-12
3.2400e+03,3.7845e-12
3.2500e+03,3.8046e-12
3.2600e+03,3.8305e-12
3.2700e+03,3.8613e-12
3.2800e+03,3.8947e-12
3.2900e+03,3.9273e-12
3.3000e+03,3.9556e-12
3.3100e+03,3.9769e-12
3.3200e+03,3.9897e-12
3.3300e+03,3.9944e-12
3.3400e+03,3.9919e-12
3.3500e+03,3.9839e-12
3.3600e+03,3.9715e-12
3.3700e+03,3.9550e-12
3.3800e+03,3.9347e-12
3.3900e+03,3.9113e-12
3.4000e+03,3.8861e-12
3.4100e+03,3.8617e-12
3.4200e+03,3.8413e-12
3.4300e+03,3.8280e-12
3.4400e+03,3.8241e-12
3.4500e+03,3.8300e-12
3.4600e+03,3.8449e-12
3.4700e+03,3.8662e-12
3.4800e+03,3.8907e-12
3.4900e+03,3.9149e-12
3.5000e+03,3.9351e-12
3.5100e+03,3.9487e-12
3.5200e+03,3.9544e-12
3.5300e+03,3.9525e-12
3.5400e+03,3.9447e-12
3.5500e+03,3.9330e-12
3.5600e+03,3.9198e-12
3.5700e+03,3.9065e-12
3.5800e+03,3.8937e-12
3.5900e+03,3.8813e-12
3.6000e+03,3.8689e-12
3.6100e+03,3.8557e-12
3.6200e+03,3.8413e-12
3.6300e+03,3.8259e-12
3.6400e+03,3.8100e-12
3.6500e+03,3.7946e-12
3.6600e+03,3.7804e-12
3.6700e+03,3.7680e-12
3.6800e+03,3.7572e-12
3.6900e+03,3.7478e-12
3.7000e+03,3.7394e-12
3.7100e+03,3.7327e-12
3.7200e+03,3.7291e-12
3.7300e+03,3.7300e-12
3.7400e+03,3.7368e-12
3.7500e+03,3.7492e-12
3.7600e+03,3.7658e-12
3.7700e+03,3.7841e-12
3.7800e+03,3.8017e-12
3.7900e+03,3.8164e-12
3.8000e+03,3.8276e-12
3.8100e+03,3.8352e-12
3.8200e+03,3.8394e-12
3.8300e+03,3.8407e-12
3.8400e+03,3.8392e-12
3.8500e+03,3.8355e-12
3.8600e+03,3.8305e-12
3.8700e+03,3.8258e-12
3.8800e+03,3.8230e-12
3.8900e+03,3.8233e-12
3.9000e+03,3.8277e-12
3.9100e+03,3.8362e-12
3.9200e+03,3.8485e-12
3.9300e+03,3.8640e-12
3.9400e+03,3.8818e-12
3.9500e+03,3.9010e-12
3.9600e+03,3.9207e-12
3.9700e+03,3.9399e-12
3.9800e+03,3.9579e-12
3.9900e+03,3.9740e-12
4.0000e+03,3.9876e-12
4.0100e+03,3.9982e-12
4.0200e+03,4.0054e-12
4.0300e+03,4.0088e-12
4.0400e+03,4.0082e-12
4.0500e+03,4.0037e-12
4.0600e+03,3.9954e-12
4.0700e+03,3.9837e-12
4.0800e+03,3.9694e-12
4.0900e+03,3.9535e-12
4.1000e+03,3.9372e-12
4.1100e+03,3.9218e-12
4.1200e+03,3.9081e-12
4.1300e+03,3.8970e-12
4.1400e+03,3.8886e-12
4.1500e+03,3.8829e-12
4.1600e+03,3.8795e-12
4.1700e+03,3.8777e-12
4.1800e+03,3.8770e-12
4.1900e+03,3.8769e-12
4.2000e+03,3.8771e-12
4.2100e+03,3.8774e-12
4.2200e+03,3.8776e-12
4.2300e+03,3.8778e-12
4.2400e+03,3.8780e-12
4.2500e+03,3.8781e-12
4.2600e+03,3.8781e-12
4.2700e+03,3.8782e-12
4.2800e+03,3.8782e-12
4.2900e+03,3.8782e-12
4.3000e+03,3.8782e-12
4.3100e+03,3.8781e-12
4.3200e+03,3.8781e-12
4.3300e+03,3.8780e-12
4.3400e+03,3.8779e-12
4.3500e+03,3.8778e-12
4.3600e+03,3.8777e-12
4.3700e+03,3.8775e-12
4.3800e+03,3.8774e-12
4.3900e+03,3.8772e-12
4.4000e+03,3.8771e-12
4.4100e+03,3.8769e-12
4.4200e+03,3.8768e-12
4.4300e+03,3.8767e-12
4.4400e+03,3.8767e-12
4.4500e+03,3.8767e-12
4.4600e+03,3.8767e-12
4.4700e+03,3.8767e-12
4.4800e+03,3.8768e-12
4.4900e+03,3.8769e-12
4.5000e+03,3.8770e-12
4.5100e+03,3.8772e-12
4.5200e+03,3.8773e-12
4.5300e+03,3.8775e-12
4.5400e+03,3.8776e-12
4.5500e+03,3.8778e-12
4.5600e+03,3.8779e-12
4.5700e+03,3.8781e-12
4.5800e+03,3.8782e-12
4.5900e+03,3.8783e-12
4.6000e+03,3.8783e-12
4.6100e+03,3.8782e-12
4.6200e+03,3.8779e-12
4.6300e+03,3.8773e-12
4.6400e+03,3.8762e-12
4.6500e+03,3.8744e-12
4.6600e+03,3.8715e-12
4.6700e+03,3.8671e-12
4.6800e+03,3.8609e-12
4.6900e+03,3.8525e-12
4.7000e+03,3.8418e-12
4.7100e+03,3.8288e-12
4.7200e+03,3.8139e-12
4.7300e+03,3.7977e-12
4.7400e+03,3.7813e-12
4.7500e+03,3.7658e-12
4.7600e+03,3.7524e-12
4.7700e+03,3.7422e-12
4.7800e+03,3.7362e-12
4.7900e+03,3.7349e-12
4.8000e+03,3.7382e-12
4.8100e+03,3.7453e-12
4.8200e+03,3.7552e-12
4.8300e+03,3.7662e-12
4.8400e+03,3.7769e-12
4.8500e+03,3.7861e-12
4.8600e+03,3.7931e-12
4.8700e+03,3.7980e-12
4.8800e+03,3.8015e-12
4.8900e+03,3.8050e-12
4.9000e+03,3.8101e-12
4.9100e+03,3.8181e-12
4.9200e+03,3.8293e-12
4.9300e+03,3.8430e-12
4.9400e+03,3.8578e-12
4.9500e+03,3.8723e-12
4.9600e+03,3.8857e-12
4.9700e+03,3.8984e-12
4.9800e+03,3.9112e-12
4.9900e+03,3.9248e-12
5.0000e+03,3.9384e-12
5.0100e+03,3.9504e-12
5.0200e+03,3.9580e-12
5.0300e+03,3.9588e-12
5.0400e+03,3.9523e-12
5.0500e+03,3.9404e-12
5.0600e+03,3.9274e-12
5.0700e+03,3.9188e-12
5.0800e+03,3.9196e-12
5.0900e+03,3.9323e-12
5.1000e+03,3.9552e-12
5.1100e+03,3.9826e-12
5.1200e+03,4.0065e-12
5.1300e+03,4.0184e-12
5.1400e+03,4.0128e-12
5.1500e+03,3.9884e-12
5.1600e+03,3.9491e-12
5.1700e+03,3.9030e-12
5.1800e+03,3.8598e-12
5.1900e+03,3.8286e-12
5.2000e+03,3.8157e-12
5.2100e+03,3.8232e-12
5.2200e+03,3.8499e-12
5.2300e+03,3.8909e-12
5.2400e+03,3.9398e-12
5.2500e+03,3.9893e-12
5.2600e+03,4.0330e-12
5.2700e+03,4.0658e-12
5.2800e+03,4.0852e-12
5.2900e+03,4.0907e-12
5.3000e+03,4.0834e-12
5.3100e+03,4.0653e-12
5.3200e+03,4.0391e-12
5.3300e+03,4.0076e-12
5.3400e+03,3.9739e-12
5.3500e+03,3.9411e-12
5.3600e+03,3.9116e-12
5.3700e+03,3.8871e-12
5.3800e+03,3.8681e-12
5.3900e+03,3.8542e-12
5.4000e+03,3.8447e-12
5.4100e+03,3.8394e-12
5.4200e+03,3.8385e-12
5.4300e+03,3.8429e-12
5.4400e+03,3.8533e-12
5.4500e+03,3.8695e-12
5.4600e+03,3.8902e-12
5.4700e+03,3.9122e-12
5.4800e+03,3.9319e-12
5.4900e+03,3.9456e-12
5.5000e+03,3.9509e-12
5.5100e+03,3.9475e-12
5.5200e+03,3.9366e-12
5.5300e+03,3.9202e-12
5.5400e+03,3.9010e-12
5.5500e+03,3.8811e-12
5.5600e+03,3.8621e-12
5.5700e+03,3.8448e-12
5.5800e+03,3.8298e-12
5.5900e+03,3.8173e-12
5.6000e+03,3.8075e-12
5.6100e+03,3.8002e-12
5.6200e+03,3.7954e-12
5.6300e+03,3.7925e-12
5.6400e+03,3.7911e-12
5.6500e+03,3.7905e-12
5.6600e+03,3.7898e-12
5.6700e+03,3.7884e-12
5.6800e+03,3.7856e-12
5.6900e+03,3.7808e-12
5.7000e+03,3.7737e-12
5.7100e+03,3.7639e-12
5.7200e+03,3.7516e-12
5.7300e+03,3.7367e-12
5.7400e+03,3.7197e-12
5.7500e+03,3.7010e-12
5.7600e+03,3.6814e-12
5.7700e+03,3.6622e-12
5.7800e+03,3.6447e-12
5.7900e+03,3.6311e-12
5.8000e+03,3.6233e-12
5.8100e+03,3.6234e-12
5.8200e+03,3.6320e-12
5.8300e+03,3.6482e-12
5.8400e+03,3.6692e-12
5.8500e+03,3.6909e-12
5.8600e+03,3.7090e-12
5.8700e+03,3.7203e-12
5.8800e+03,3.7231e-12
5.8900e+03,3.7176e-12
5.9000e+03,3.7052e-12
5.9100e+03,3.6877e-12
5.9200e+03,3.6672e-12
5.9300e+03,3.6452e-12
5.9400e+03,3.6224e-12
5.9500e+03,3.5992e-12
5.9600e+03,3.5756e-12
5.9700e+03,3.5519e-12
5.9800e+03,3.5289e-12
5.9900e+03,3.5079e-12
6.0000e+03,3.4902e-12
6.0100e+03,3.4771e-12
6.0200e+03,3.4691e-12
6.0300e+03,3.4662e-12
6.0400e+03,3.4676e-12
6.0500e+03,3.4724e-12
6.0600e+03,3.4792e-12
6.0700e+03,3.4865e-12
6.0800e+03,3.4931e-12
6.0900e+03,3.4976e-12
6.1000e+03,3.4994e-12
6.1100e+03,3.4985e-12
6.1200e+03,3.4955e-12
6.1300e+03,3.4919e-12
6.1400e+03,3.4899e-12
6.1500e+03,3.4913e-12
6.1600e+03,3.4977e-12
6.1700e+03,3.5097e-12
6.1800e+03,3.5269e-12
6.1900e+03,3.5476e-12
6.2000e+03,3.5694e-12
6.2100e+03,3.5900e-12
6.2200e+03,3.6071e-12
6.2300e+03,3.6191e-12
6.2400e+03,3.6247e-12
6.2500e+03,3.6231e-12
6.2600e+03,3.6143e-12
6.2700e+03,3.5987e-12
6.2800e+03,3.5778e-12
6.2900e+03,3.5539e-12
6.3000e+03,3.5297e-12
6.3100e+03,3.5083e-12
6.3200e+03,3.4923e-12
6.3300e+03,3.4836e-12
6.3400e+03,3.4827e-12
6.3500e+03,3.4886e-12
6.3600e+03,3.4993e-12
6.3700e+03,3.5121e-12
6.3800e+03,3.5245e-12
6.3900e+03,3.5346e-12
6.4000e+03,3.5414e-12
6.4100e+03,3.5451e-12
6.4200e+03,3.5463e-12
6.4300e+03,3.5457e-12
6.4400e+03,3.5444e-12
6.4500e+03,3.5433e-12
6.4600e+03,3.5436e-12
6.4700e+03,3.5464e-12
6.4800e+03,3.5530e-12
6.4900e+03,3.5648e-12
6.5000e+03,3.5830e-12
6.5100e+03,3.6088e-12
6.5200e+03,3.6425e-12
6.5300e+03,3.6832e-12
6.5400e+03,3.7284e-12
6.5500e+03,3.7739e-12
6.5600e+03,3.8147e-12
6.5700e+03,3.8456e-12
6.5800e+03,3.8631e-12
6.5900e+03,3.8658e-12
6.6000e+03,3.8550e-12
6.6100e+03,3.8341e-12
6.6200e+03,3.8074e-12
6.6300e+03,3.7792e-12
6.6400e+03,3.7528e-12
6.6500e+03,3.7302e-12
6.6600e+03,3.7121e-12
6.6700e+03,3.6981e-12
6.6800e+03,3.6874e-12
6.6900e+03,3.6789e-12
6.7000e+03,3.6716e-12
6.7100e+03,3.6651e-12
6.7200e+03,3.6592e-12
6.7300e+03,3.6540e-12
6.7400e+03,3.6496e-12
6.7500e+03,3.6457e-12
6.7600e+03,3.6421e-12
6.7700e+03,3.6387e-12
6.7800e+03,3.6355e-12
6.7900e+03,3.6332e-12
6.8000e+03,3.6326e-12
6.8100e+03,3.6342e-12
6.8200e+03,3.6379e-12
6.8300e+03,3.6427e-12
6.8400e+03,3.6470e-12
6.8500e+03,3.6490e-12
6.8600e+03,3.6471e-12
6.8700e+03,3.6409e-12
6.8800e+03,3.6304e-12
6.8900e+03,3.6166e-12
6.9000e+03,3.6008e-12
6.9100e+03,3.5845e-12
6.9200e+03,3.5689e-12
6.9300e+03,3.5548e-12
6.9400e+03,3.5426e-12
6.9500e+03,3.5325e-12
6.9600e+03,3.5250e-12
6.9700e+03,3.5209e-12
6.9800e+03,3.5214e-12
6.9900e+03,3.5276e-12
7.0000e+03,3.5400e-12
7.0100e+03,3.5584e-12
7.0200e+03,3.5810e-12
7.0300e+03,3.6053e-12
7.0400e+03,3.6287e-12
7.0500e+03,3.6487e-12
7.0600e+03,3.6640e-12
7.0700e+03,3.6751e-12
7.0800e+03,3.6842e-12
7.0900e+03,3.6953e-12
7.1000e+03,3.7127e-12
7.1100e+03,3.7410e-12
7.1200e+03,3.7834e-12
7.1300e+03,3.8420e-12
7.1400e+03,3.9174e-12
7.1500e+03,4.0083e-12
7.1600e+03,4.1119e-12
7.1700e+03,4.2227e-12
7.1800e+03,4.3332e-12
7.1900e+03,4.4343e-12
7.2000e+03,4.5172e-12
7.2100e+03,4.5755e-12
7.2200e+03,4.6069e-12
7.2300e+03,4.6135e-12
7.2400e+03,4.6010e-12
7.2500e+03,4.5766e-12
7.2600e+03,4.5472e-12
7.2700e+03,4.5179e-12
7.2800e+03,4.4913e-12
7.2900e+03,4.4681e-12
7.3000e+03,4.4478e-12
7.3100e+03,4.4290e-12
7.3200e+03,4.4108e-12
7.3300e+03,4.3924e-12
7.3400e+03,4.3742e-12
7.3500e+03,4.3572e-12
7.3600e+03,4.3434e-12
7.3700e+03,4.3350e-12
7.3800e+03,4.3336e-12
7.3900e+03,4.3395e-12
7.4000e+03,4.3515e-12
7.4100e+03,4.3674e-12
7.4200e+03,4.3841e-12
7.4300e+03,4.3991e-12
7.4400e+03,4.4104e-12
7.4500e+03,4.4177e-12
7.4600e+03,4.4216e-12
7.4700e+03,4.4235e-12
7.4800e+03,4.4250e-12
7.4900e+03,4.4268e-12
7.5000e+03,4.4283e-12
7.5100e+03,4.4284e-12
7.5200e+03,4.4250e-12
7.5300e+03,4.4169e-12
7.5400e+03,4.4040e-12
7.5500e+03,4.3876e-12
7.5600e+03,4.3700e-12
7.5700e+03,4.3534e-12
7.5800e+03,4.3398e-12
7.5900e+03,4.3301e-12
7.6000e+03,4.3241e-12
7.6100e+03,4.3207e-12
7.6200e+03,4.3186e-12
7.6300e+03,4.3161e-12
7.6400e+03,4.3121e-12
7.6500e+03,4.3059e-12
7.6600e+03,4.2976e-12
7.6700e+03,4.2877e-12
7.6800e+03,4.2770e-12
7.6900e+03,4.2665e-12
7.7000e+03,4.2566e-12
7.7100e+03,4.2478e-12
7.7200e+03,4.2399e-12
7.7300e+03,4.2328e-12
7.7400e+03,4.2261e-12
7.7500e+03,4.2194e-12
7.7600e+03,4.2126e-12
7.7700e+03,4.2057e-12
7.7800e+03,4.1992e-12
7.7900e+03,4.1934e-12
7.8000e+03,4.1888e-12
7.8100e+03,4.1858e-12
7.8200e+03,4.1844e-12
7.8300e+03,4.1843e-12
7.8400e+03,4.1852e-12
7.8500e+03,4.1868e-12
7.8600e+03,4.1888e-12
7.8700e+03,4.1913e-12
7.8800e+03,4.1945e-12
7.8900e+03,4.1991e-12
7.9000e+03,4.2053e-12
7.9100e+03,4.2136e-12
7.9200e+03,4.2239e-12
7.9300e+03,4.2359e-12
7.9400e+03,4.2491e-12
7.9500e+03,4.2630e-12
7.9600e+03,4.2773e-12
7.9700e+03,4.2920e-12
7.9800e+03,4.3074e-12
7.9900e+03,4.3238e-12
8.0000e+03,4.3414e-12
8.0100e+03,4.3597e-12
8.0200e+03,4.3778e-12
8.0300e+03,4.3943e-12
8.0400e+03,4.4078e-12
8.0500e+03,4.4171e-12
8.0600e+03,4.4215e-12
8.0700e+03,4.4206e-12
8.0800e+03,4.4147e-12
8.0900e+03,4.4045e-12
8.1000e+03,4.3908e-12
8.1100e+03,4.3750e-12
8.1200e+03,4.3587e-12
8.1300e+03,4.3438e-12
8.1400e+03,4.3319e-12
8.1500e+03,4.3244e-12
8.1600e+03,4.3223e-12
8.1700e+03,4.3254e-12
8.1800e+03,4.3324e-12
8.1900e+03,4.3411e-12
8.2000e+03,4.3482e-12
8.2100e+03,4.3508e-12
8.2200e+03,4.3466e-12
8.2300e+03,4.3351e-12
8.2400e+03,4.3175e-12
8.2500e+03,4.2968e-12
8.2600e+03,4.2767e-12
8.2700e+03,4.2604e-12
8.2800e+03,4.2497e-12
8.2900e+03,4.2447e-12
8.3000e+03,4.2438e-12
8.3100e+03,4.2445e-12
8.3200e+03,4.2445e-12
8.3300e+03,4.2421e-12
8.3400e+03,4.2369e-12
8.3500e+03,4.2298e-12
8.3600e+03,4.2219e-12
8.3700e+03,4.2145e-12
8.3800e+03,4.2083e-12
8.3900e+03,4.2035e-12
8.4000e+03,4.1996e-12
8.4100e+03,4.1961e-12
8.4200e+03,4.1928e-12
8.4300e+03,4.1892e-12
8.4400e+03,4.1854e-12
8.4500e+03,4.1815e-12
8.4600e+03,4.1777e-12
8.4700e+03,4.1748e-12
8.4800e+03,4.1732e-12
8.4900e+03,4.1734e-12
8.5000e+03,4.1757e-12
8.5100e+03,4.1797e-12
8.5200e+03,4.1851e-12
8.5300e+03,4.1912e-12
8.5400e+03,4.1976e-12
8.5500e+03,4.2041e-12
8.5600e+03,4.2110e-12
8.5700e+03,4.2185e-12
8.5800e+03,4.2273e-12
8.5900e+03,4.2377e-12
8.6000e+03,4.2500e-12
8.6100e+03,4.2640e-12
8.6200e+03,4.2791e-12
8.6300e+03,4.2947e-12
8.6400e+03,4.3099e-12
8.6500e+03,4.3239e-12
8.6600e+03,4.3356e-12
8.6700e+03,4.3443e-12
8.6800e+03,4.3495e-12
8.6900e+03,4.3509e-12
8.7000e+03,4.3485e-12
8.7100e+03,4.3425e-12
8.7200e+03,4.3333e-12
8.7300e+03,4.3213e-12
8.7400e+03,4.3072e-12
8.7500e+03,4.2919e-12
8.7600e+03,4.2764e-12
8.7700e+03,4.2625e-12
8.7800e+03,4.2521e-12
8.7900e+03,4.2469e-12
8.8000e+03,4.2484e-12
8.8100e+03,4.2570e-12
8.8200e+03,4.2722e-12
8.8300e+03,4.2924e-12
8.8400e+03,4.3156e-12
8.8500e+03,4.3393e-12
8.8600e+03,4.3615e-12
8.8700e+03,4.3806e-12
8.8800e+03,4.3959e-12
8.8900e+03,4.4074e-12
8.9000e+03,4.4162e-12
8.9100e+03,4.4234e-12
8.9200e+03,4.4302e-12
8.9300e+03,4.4374e-12
8.9400e+03,4.4452e-12
8.9500e+03,4.4533e-12
8.9600e+03,4.4613e-12
8.9700e+03,4.4685e-12
8.9800e+03,4.4746e-12
8.9900e+03,4.4796e-12
9.0000e+03,4.4838e-12
9.0100e+03,4.4879e-12
9.0200e+03,4.4925e-12
9.0300e+03,4.4981e-12
9.0400e+03,4.5045e-12
9.0500e+03,4.5115e-12
9.0600e+03,4.5183e-12
9.0700e+03,4.5241e-12
