# Time , Side-Flux
0.0000e+00,0.0000e+00
1.0000e+01,2.0122e-16
2.0000e+01,4.0231e-16
3.0000e+01,6.0317e-16
4.0000e+01,8.0368e-16
5.0000e+01,1.0037e-15
6.0000e+01,1.2032e-15
7.0000e+01,1.4019e-15
8.0000e+01,1.5998e-15
9.0000e+01,1.7968e-15
1.0000e+02,1.9928e-15
1.1000e+02,2.1877e-15
1.2000e+02,2.3813e-15
1.3000e+02,2.5736e-15
1.4000e+02,2.7645e-15
1.5000e+02,2.9539e-15
1.6000e+02,3.1417e-15
1.7000e+02,3.3278e-15
1.8000e+02,3.5122e-15
1.9000e+02,3.6948e-15
2.0000e+02,3.8755e-15
2.1000e+02,4.0542e-15
2.2000e+02,4.2310e-15
2.3000e+02,4.4057e-15
2.4000e+02,4.5783e-15
2.5000e+02,4.7488e-15
2.6000e+02,4.9171e-15
2.7000e+02,5.0832e-15
2.8000e+02,5.2471e-15
2.9000e+02,5.4087e-15
3.0000e+02,5.5680e-15
3.1000e+02,5.7251e-15
3.2000e+02,5.8798e-15
3.3000e+02,6.0322e-15
3.4000e+02,6.1823e-15
3.5000e+02,6.3301e-15
3.6000e+02,6.4755e-15
3.7000e+02,6.6186e-15
3.8000e+02,6.7594e-15
3.9000e+02,6.8979e-15
4.0000e+02,7.0342e-15
4.1000e+02,7.1681e-15
4.2000e+02,7.2998e-15
4.3000e+02,7.4293e-15
4.4000e+02,7.5565e-15
4.5000e+02,7.6816e-15
4.6000e+02,7.8044e-15
4.7000e+02,7.9252e-15
4.8000e+02,8.0438e-15
4.9000e+02,8.1603e-15
5.0000e+02,8.2747e-15
5.1000e+02,8.3872e-15
5.2000e+02,8.4976e-15
5.3000e+02,8.6060e-15
5.4000e+02,8.7125e-15
5.5000e+02,8.8171e-15
5.6000e+02,8.9198e-15
5.7000e+02,9.0206e-15
5.8000e+02,9.1197e-15
5.9000e+02,9.2169e-15
6.0000e+02,9.3124e-15
6.1000e+02,9.4061e-15
6.2000e+02,9.4982e-15
6.3000e+02,9.5886e-15
6.4000e+02,9.6773e-15
6.5000e+02,9.7645e-15
6.6000e+02,9.8500e-15
6.7000e+02,9.9340e-15
6.8000e+02,1.0017e-14
6.9000e+02,1.0098e-14
7.0000e+02,1.0177e-14
7.1000e+02,1.0255e-14
7.2000e+02,1.0332e-14
7.3000e+02,1.0407e-14
7.4000e+02,1.0481e-14
7.5000e+02,1.0554e-14
7.6000e+02,1.0625e-14
7.7000e+02,1.0695e-14
7.8000e+02,1.0764e-14
7.9000e+02,1.0832e-14
8.0000e+02,1.0898e-14
8.1000e+02,1.0963e-14
8.2000e+02,1.1027e-14
8.3000e+02,1.1090e-14
8.4000e+02,1.1152e-14
8.5000e+02,1.1213e-14
8.6000e+02,1.1272e-14
8.7000e+02,1.1331e-14
8.8000e+02,1.1388e-14
8.9000e+02,1.1444e-14
9.0000e+02,1.1500e-14
9.1000e+02,1.1554e-14
9.2000e+02,1.1607e-14
9.3000e+02,1.1660e-14
9.4000e+02,1.1711e-14
9.5000e+02,1.1762e-14
9.6000e+02,1.1811e-14
9.7000e+02,1.1860e-14
9.8000e+02,1.1907e-14
9.9000e+02,1.1954e-14
1.0000e+03,1.1999e-14
1.0100e+03,1.2044e-14
1.0200e+03,1.2088e-14
1.0300e+03,1.2131e-14
1.0400e+03,1.2173e-14
1.0500e+03,1.2214e-14
1.0600e+03,1.2254e-14
1.0700e+03,1.2293e-14
1.0800e+03,1.2332e-14
1.0900e+03,1.2369e-14
1.1000e+03,1.2406e-14
1.1100e+03,1.2441e-14
1.1200e+03,1.2476e-14
1.1300e+03,1.2510e-14
1.1400e+03,1.2542e-14
1.1500e+03,1.2574e-14
1.1600e+03,1.2605e-14
1.1700e+03,1.2635e-14
1.1800e+03,1.2664e-14
1.1900e+03,1.2693e-14
1.2000e+03,1.2720e-14
1.2100e+03,1.2746e-14
1.2200e+03,1.2772e-14
1.2300e+03,1.2796e-14
1.2400e+03,1.2820e-14
1.2500e+03,1.2843e-14
1.2600e+03,1.2865e-14
1.2700e+03,1.2885e-14
1.2800e+03,1.2905e-14
1.2900e+03,1.2925e-14
1.3000e+03,1.2943e-14
1.3100e+03,1.2960e-14
1.3200e+03,1.2977e-14
1.3300e+03,1.2993e-14
1.3400e+03,1.3007e-14
1.3500e+03,1.3022e-14
1.3600e+03,1.3035e-14
1.3700e+03,1.3047e-14
1.3800e+03,1.3059e-14
1.3900e+03,1.3070e-14
1.4000e+03,1.3080e-14
1.4100e+03,1.3090e-14
1.4200e+03,1.3099e-14
1.4300e+03,1.3107e-14
1.4400e+03,1.3114e-14
1.4500e+03,1.3121e-14
1.4600e+03,1.3128e-14
1.4700e+03,1.3133e-14
1.4800e+03,1.3139e-14
1.4900e+03,1.3143e-14
1.5000e+03,1.3148e-14
1.5100e+03,1.3151e-14
1.5200e+03,1.3155e-14
1.5300e+03,1.3157e-14
1.5400e+03,1.3160e-14
1.5500e+03,1.3162e-14
1.5600e+03,1.3164e-14
1.5700e+03,1.3165e-14
1.5800e+03,1.3166e-14
1.5900e+03,1.3167e-14
1.6000e+03,1.3168e-14
1.6100e+03,1.3168e-14
1.6200e+03,1.3169e-14
1.6300e+03,1.3169e-14
1.6400e+03,1.3169e-14
1.6500e+03,1.3169e-14
1.6600e+03,1.3168e-14
1.6700e+03,1.3168e-14
1.6800e+03,1.3168e-14
1.6900e+03,1.3168e-14
1.7000e+03,1.3168e-14
1.7100e+03,1.3168e-14
1.7200e+03,1.3168e-14
1.7300e+03,1.3168e-14
1.7400e+03,1.3168e-14
1.7500e+03,1.3169e-14
1.7600e+03,1.3169e-14
1.7700e+03,1.3170e-14
1.7800e+03,1.3171e-14
1.7900e+03,1.3172e-14
1.8000e+03,1.3174e-14
1.8100e+03,1.3176e-14
1.8200e+03,1.3178e-14
1.8300e+03,1.3180e-14
1.8400e+03,1.3183e-14
1.8500e+03,1.3186e-14
1.8600e+03,1.3190e-14
1.8700e+03,1.3194e-14
1.8800e+03,1.3198e-14
1.8900e+03,1.3203e-14
1.9000e+03,1.3208e-14
1.9100e+03,1.3214e-14
1.9200e+03,1.3220e-14
1.9300e+03,1.3226e-14
1.9400e+03,1.3233e-14
1.9500e+03,1.3241e-14
1.9600e+03,1.3249e-14
1.9700e+03,1.3257e-14
1.9800e+03,1.3266e-14
1.9900e+03,1.3276e-14
2.0000e+03,1.3286e-14
2.0100e+03,1.3296e-14
2.0200e+03,1.3307e-14
2.0300e+03,1.3319e-14
2.0400e+03,1.3331e-14
2.0500e+03,1.3343e-14
2.0600e+03,1.3356e-14
2.0700e+03,1.3370e-14
2.0800e+03,1.3384e-14
2.0900e+03,1.3398e-14
2.1000e+03,1.3413e-14
2.1100e+03,1.3428e-14
2.1200e+03,1.3444e-14
2.1300e+03,1.3461e-14
2.1400e+03,1.3477e-14
2.1500e+03,1.3495e-14
2.1600e+03,1.3512e-14
2.1700e+03,1.3530e-14
2.1800e+03,1.3549e-14
2.1900e+03,1.3567e-14
2.2000e+03,1.3586e-14
2.2100e+03,1.3606e-14
2.2200e+03,1.3626e-14
2.2300e+03,1.3646e-14
2.2400e+03,1.3666e-14
2.2500e+03,1.3687e-14
2.2600e+03,1.3708e-14
2.2700e+03,1.3729e-14
2.2800e+03,1.3750e-14
2.2900e+03,1.3772e-14
2.3000e+03,1.3793e-14
2.3100e+03,1.3815e-14
2.3200e+03,1.3837e-14
2.3300e+03,1.3860e-14
2.3400e+03,1.3882e-14
2.3500e+03,1.3904e-14
2.3600e+03,1.3927e-14
2.3700e+03,1.3950e-14
2.3800e+03,1.3972e-14
2.3900e+03,1.3995e-14
2.4000e+03,1.4018e-14
2.4100e+03,1.4041e-14
2.4200e+03,1.4064e-14
2.4300e+03,1.4087e-14
2.4400e+03,1.4110e-14
2.4500e+03,1.4133e-14
2.4600e+03,1.4156e-14
2.4700e+03,1.4179e-14
2.4800e+03,1.4201e-14
2.4900e+03,1.4224e-14
2.5000e+03,1.4247e-14
2.5100e+03,1.4270e-14
2.5200e+03,1.4293e-14
2.5300e+03,1.4316e-14
2.5400e+03,1.4339e-14
2.5500e+03,1.4362e-14
2.5600e+03,1.4384e-14
2.5700e+03,1.4407e-14
2.5800e+03,1.4430e-14
2.5900e+03,1.4453e-14
2.6000e+03,1.4475e-14
2.6100e+03,1.4498e-14
2.6200e+03,1.4521e-14
2.6300e+03,1.4544e-14
2.6400e+03,1.4566e-14
2.6500e+03,1.4589e-14
2.6600e+03,1.4612e-14
2.6700e+03,1.4635e-14
2.6800e+03,1.4658e-14
2.6900e+03,1.4681e-14
2.7000e+03,1.4704e-14
2.7100e+03,1.4726e-14
2.7200e+03,1.4749e-14
2.7300e+03,1.4773e-14
2.7400e+03,1.4796e-14
2.7500e+03,1.4819e-14
2.7600e+03,1.4842e-14
2.7700e+03,1.4865e-14
2.7800e+03,1.4889e-14
2.7900e+03,1.4912e-14
2.8000e+03,1.4936e-14
2.8100e+03,1.4959e-14
2.8200e+03,1.4983e-14
2.8300e+03,1.5006e-14
2.8400e+03,1.5030e-14
2.8500e+03,1.5054e-14
2.8600e+03,1.5078e-14
2.8700e+03,1.5102e-14
2.8800e+03,1.5126e-14
2.8900e+03,1.5150e-14
2.9000e+03,1.5174e-14
2.9100e+03,1.5198e-14
2.9200e+03,1.5222e-14
2.9300e+03,1.5246e-14
2.9400e+03,1.5270e-14
2.9500e+03,1.5294e-14
2.9600e+03,1.5318e-14
2.9700e+03,1.5343e-14
2.9800e+03,1.5367e-14
2.9900e+03,1.5391e-14
3.0000e+03,1.5415e-14
3.0100e+03,1.5439e-14
3.0200e+03,1.5462e-14
3.0300e+03,1.5486e-14
3.0400e+03,1.5510e-14
3.0500e+03,1.5533e-14
3.0600e+03,1.5557e-14
3.0700e+03,1.5580e-14
3.0800e+03,1.5603e-14
3.0900e+03,1.5626e-14
3.1000e+03,1.5649e-14
3.1100e+03,1.5672e-14
3.1200e+03,1.5694e-14
3.1300e+03,1.5716e-14
3.1400e+03,1.5738e-14
3.1500e+03,1.5760e-14
3.1600e+03,1.5782e-14
3.1700e+03,1.5803e-14
3.1800e+03,1.5824e-14
3.1900e+03,1.5845e-14
3.2000e+03,1.5865e-14
3.2100e+03,1.5885e-14
3.2200e+03,1.5905e-14
3.2300e+03,1.5925e-14
3.2400e+03,1.5944e-14
3.2500e+03,1.5963e-14
3.2600e+03,1.5981e-14
3.2700e+03,1.5999e-14
3.2800e+03,1.6017e-14
3.2900e+03,1.6035e-14
3.3000e+03,1.6052e-14
3.3100e+03,1.6068e-14
3.3200e+03,1.6085e-14
3.3300e+03,1.6100e-14
3.3400e+03,1.6116e-14
3.3500e+03,1.6131e-14
3.3600e+03,1.6146e-14
3.3700e+03,1.6160e-14
3.3800e+03,1.6174e-14
3.3900e+03,1.6187e-14
3.4000e+03,1.6200e-14
3.4100e+03,1.6213e-14
3.4200e+03,1.6225e-14
3.4300e+03,1.6237e-14
3.4400e+03,1.6248e-14
3.4500e+03,1.6259e-14
3.4600e+03,1.6269e-14
3.4700e+03,1.6279e-14
3.4800e+03,1.6289e-14
3.4900e+03,1.6298e-14
3.5000e+03,1.6307e-14
3.5100e+03,1.6315e-14
3.5200e+03,1.6323e-14
3.5300e+03,1.6330e-14
3.5400e+03,1.6338e-14
3.5500e+03,1.6344e-14
3.5600e+03,1.6351e-14
3.5700e+03,1.6357e-14
3.5800e+03,1.6362e-14
3.5900e+03,1.6367e-14
3.6000e+03,1.6372e-14
3.6100e+03,1.6377e-14
3.6200e+03,1.6381e-14
3.6300e+03,1.6385e-14
3.6400e+03,1.6388e-14
3.6500e+03,1.6391e-14
3.6600e+03,1.6394e-14
3.6700e+03,1.6397e-14
3.6800e+03,1.6399e-14
3.6900e+03,1.6401e-14
3.7000e+03,1.6403e-14
3.7100e+03,1.6404e-14
3.7200e+03,1.6405e-14
3.7300e+03,1.6406e-14
3.7400e+03,1.6407e-14
3.7500e+03,1.6407e-14
3.7600e+03,1.6408e-14
3.7700e+03,1.6408e-14
3.7800e+03,1.6408e-14
3.7900e+03,1.6408e-14
3.8000e+03,1.6407e-14
3.8100e+03,1.6407e-14
3.8200e+03,1.6406e-14
3.8300e+03,1.6405e-14
3.8400e+03,1.6404e-14
3.8500e+03,1.6403e-14
3.8600e+03,1.6402e-14
3.8700e+03,1.6401e-14
3.8800e+03,1.6400e-14
3.8900e+03,1.6398e-14
3.9000e+03,1.6397e-14
3.9100e+03,1.6396e-14
3.9200e+03,1.6394e-14
3.9300e+03,1.6393e-14
3.9400e+03,1.6391e-14
3.9500e+03,1.6390e-14
3.9600e+03,1.6388e-14
3.9700e+03,1.6387e-14
3.9800e+03,1.6386e-14
3.9900e+03,1.6384e-14
4.0000e+03,1.6383e-14
4.0100e+03,1.6381e-14
4.0200e+03,1.6380e-14
4.0300e+03,1.6379e-14
4.0400e+03,1.6378e-14
4.0500e+03,1.6377e-14
4.0600e+03,1.6376e-14
4.0700e+03,1.6375e-14
4.0800e+03,1.6374e-14
4.0900e+03,1.6373e-14
4.1000e+03,1.6372e-14
4.1100e+03,1.6371e-14
4.1200e+03,1.6371e-14
4.1300e+03,1.6370e-14
4.1400e+03,1.6370e-14
4.1500e+03,1.6369e-14
4.1600e+03,1.6369e-14
4.1700e+03,1.6369e-14
4.1800e+03,1.6368e-14
4.1900e+03,1.6368e-14
4.2000e+03,1.6368e-14
4.2100e+03,1.6368e-14
4.2200e+03,1.6368e-14
4.2300e+03,1.6368e-14
4.2400e+03,1.6369e-14
4.2500e+03,1.6369e-14
4.2600e+03,1.6369e-14
4.2700e+03,1.6370e-14
4.2800e+03,1.6370e-14
4.2900e+03,1.6371e-14
4.3000e+03,1.6371e-14
4.3100e+03,1.6372e-14
4.3200e+03,1.6372e-14
4.3300e+03,1.6373e-14
4.3400e+03,1.6374e-14
4.3500e+03,1.6375e-14
4.3600e+03,1.6376e-14
4.3700e+03,1.6377e-14
4.3800e+03,1.6378e-14
4.3900e+03,1.6379e-14
4.4000e+03,1.6380e-14
4.4100e+03,1.6381e-14
4.4200e+03,1.6382e-14
4.4300e+03,1.6384e-14
4.4400e+03,1.6385e-14
4.4500e+03,1.6386e-14
4.4600e+03,1.6388e-14
4.4700e+03,1.6389e-14
4.4800e+03,1.6391e-14
4.4900e+03,1.6392e-14
4.5000e+03,1.6394e-14
4.5100e+03,1.6395e-14
4.5200e+03,1.6397e-14
4.5300e+03,1.6398e-14
4.5400e+03,1.6400e-14
4.5500e+03,1.6402e-14
4.5600e+03,1.6403e-14
4.5700e+03,1.6405e-14
4.5800e+03,1.6407e-14
4.5900e+03,1.6409e-14
4.6000e+03,1.6411e-14
4.6100e+03,1.6413e-14
4.6200e+03,1.6414e-14
4.6300e+03,1.6416e-14
4.6400e+03,1.6418e-14
4.6500e+03,1.6420e-14
4.6600e+03,1.6422e-14
4.6700e+03,1.6425e-14
4.6800e+03,1.6427e-14
4.6900e+03,1.6429e-14
4.7000e+03,1.6431e-14
4.7100e+03,1.6433e-14
4.7200e+03,1.6435e-14
4.7300e+03,1.6438e-14
4.7400e+03,1.6440e-14
4.7500e+03,1.6442e-14
4.7600e+03,1.6445e-14
4.7700e+03,1.6447e-14
4.7800e+03,1.6450e-14
4.7900e+03,1.6452e-14
4.8000e+03,1.6455e-14
4.8100e+03,1.6458e-14
4.8200e+03,1.6460e-14
4.8300e+03,1.6463e-14
4.8400e+03,1.6466e-14
4.8500e+03,1.6469e-14
4.8600e+03,1.6472e-14
4.8700e+03,1.6475e-14
4.8800e+03,1.6478e-14
4.8900e+03,1.6481e-14
4.9000e+03,1.6485e-14
4.9100e+03,1.6488e-14
4.9200e+03,1.6491e-14
4.9300e+03,1.6495e-14
4.9400e+03,1.6499e-14
4.9500e+03,1.6502e-14
4.9600e+03,1.6506e-14
4.9700e+03,1.6510e-14
4.9800e+03,1.6514e-14
4.9900e+03,1.6519e-14
5.0000e+03,1.6523e-14
5.0100e+03,1.6527e-14
5.0200e+03,1.6532e-14
5.0300e+03,1.6536e-14
5.0400e+03,1.6541e-14
5.0500e+03,1.6546e-14
5.0600e+03,1.6551e-14
5.0700e+03,1.6556e-14
5.0800e+03,1.6561e-14
5.0900e+03,1.6566e-14
5.1000e+03,1.6571e-14
5.1100e+03,1.6577e-14
5.1200e+03,1.6582e-14
5.1300e+03,1.6588e-14
5.1400e+03,1.6593e-14
5.1500e+03,1.6599e-14
5.1600e+03,1.6604e-14
5.1700e+03,1.6610e-14
5.1800e+03,1.6616e-14
5.1900e+03,1.6621e-14
5.2000e+03,1.6627e-14
5.2100e+03,1.6633e-14
5.2200e+03,1.6639e-14
5.2300e+03,1.6644e-14
5.2400e+03,1.6650e-14
5.2500e+03,1.6656e-14
5.2600e+03,1.6661e-14
5.2700e+03,1.6667e-14
5.2800e+03,1.6672e-14
5.2900e+03,1.6678e-14
5.3000e+03,1.6683e-14
5.3100e+03,1.6688e-14
5.3200e+03,1.6693e-14
5.3300e+03,1.6698e-14
5.3400e+03,1.6703e-14
5.3500e+03,1.6708e-14
5.3600e+03,1.6712e-14
5.3700e+03,1.6717e-14
5.3800e+03,1.6721e-14
5.3900e+03,1.6725e-14
5.4000e+03,1.6729e-14
5.4100e+03,1.6733e-14
5.4200e+03,1.6736e-14
5.4300e+03,1.6740e-14
5.4400e+03,1.6743e-14
5.4500e+03,1.6746e-14
5.4600e+03,1.6749e-14
5.4700e+03,1.6752e-14
5.4800e+03,1.6754e-14
5.4900e+03,1.6756e-14
5.5000e+03,1.6758e-14
5.5100e+03,1.6760e-14
5.5200e+03,1.6762e-14
5.5300e+03,1.6763e-14
5.5400e+03,1.6765e-14
5.5500e+03,1.6766e-14
5.5600e+03,1.6767e-14
5.5700e+03,1.6767e-14
5.5800e+03,1.6768e-14
5.5900e+03,1.6768e-14
5.6000e+03,1.6768e-14
5.6100e+03,1.6768e-14
5.6200e+03,1.6768e-14
5.6300e+03,1.6767e-14
5.6400e+03,1.6766e-14
5.6500e+03,1.6766e-14
5.6600e+03,1.6765e-14
5.6700e+03,1.6763e-14
5.6800e+03,1.6762e-14
5.6900e+03,1.6760e-14
5.7000e+03,1.6759e-14
5.7100e+03,1.6757e-14
5.7200e+03,1.6755e-14
5.7300e+03,1.6753e-14
5.7400e+03,1.6750e-14
5.7500e+03,1.6748e-14
5.7600e+03,1.6745e-14
5.7700e+03,1.6742e-14
5.7800e+03,1.6739e-14
5.7900e+03,1.6736e-14
5.8000e+03,1.6733e-14
5.8100e+03,1.6730e-14
5.8200e+03,1.6726e-14
5.8300e+03,1.6723e-14
5.8400e+03,1.6719e-14
5.8500e+03,1.6715e-14
5.8600e+03,1.6711e-14
5.8700e+03,1.6707e-14
5.8800e+03,1.6703e-14
5.8900e+03,1.6698e-14
5.9000e+03,1.6694e-14
5.9100e+03,1.6689e-14
5.9200e+03,1.6685e-14
5.9300e+03,1.6680e-14
5.9400e+03,1.6675e-14
5.9500e+03,1.6670e-14
5.9600e+03,1.6665e-14
5.9700e+03,1.6660e-14
5.9800e+03,1.6655e-14
5.9900e+03,1.6649e-14
6.0000e+03,1.6644e-14
6.0100e+03,1.6639e-14
6.0200e+03,1.6633e-14
6.0300e+03,1.6627e-14
6.0400e+03,1.6622e-14
6.0500e+03,1.6616e-14
6.0600e+03,1.6610e-14
6.0700e+03,1.6604e-14
6.0800e+03,1.6599e-14
6.0900e+03,1.6593e-14
6.1000e+03,1.6587e-14
6.1100e+03,1.6581e-14
6.1200e+03,1.6575e-14
6.1300e+03,1.6569e-14
6.1400e+03,1.6563e-14
6.1500e+03,1.6557e-14
6.1600e+03,1.6551e-14
6.1700e+03,1.6545e-14
6.1800e+03,1.6539e-14
6.1900e+03,1.6533e-14
6.2000e+03,1.6527e-14
6.2100e+03,1.6521e-14
6.2200e+03,1.6515e-14
6.2300e+03,1.6509e-14
6.2400e+03,1.6503e-14
6.2500e+03,1.6497e-14
6.2600e+03,1.6491e-14
6.2700e+03,1.6486e-14
6.2800e+03,1.6480e-14
6.2900e+03,1.6474e-14
6.3000e+03,1.6469e-14
6.3100e+03,1.6463e-14
6.3200e+03,1.6457e-14
6.3300e+03,1.6452e-14
6.3400e+03,1.6446e-14
6.3500e+03,1.6441e-14
6.3600e+03,1.6435e-14
6.3700e+03,1.6430e-14
6.3800e+03,1.6425e-14
6.3900e+03,1.6419e-14
6.4000e+03,1.6414e-14
6.4100e+03,1.6409e-14
6.4200e+03,1.6404e-14
6.4300e+03,1.6398e-14
6.4400e+03,1.6393e-14
6.4500e+03,1.6388e-14
6.4600e+03,1.6383e-14
6.4700e+03,1.6378e-14
6.4800e+03,1.6373e-14
6.4900e+03,1.6368e-14
6.5000e+03,1.6363e-14
6.5100e+03,1.6358e-14
6.5200e+03,1.6353e-14
6.5300e+03,1.6348e-14
6.5400e+03,1.6343e-14
6.5500e+03,1.6338e-14
6.5600e+03,1.6334e-14
6.5700e+03,1.6329e-14
6.5800e+03,1.6324e-14
6.5900e+03,1.6319e-14
6.6000e+03,1.6315e-14
6.6100e+03,1.6310e-14
6.6200e+03,1.6305e-14
6.6300e+03,1.6301e-14
6.6400e+03,1.6296e-14
6.6500e+03,1.6292e-14
6.6600e+03,1.6287e-14
6.6700e+03,1.6283e-14
6.6800e+03,1.6278e-14
6.6900e+03,1.6274e-14
6.7000e+03,1.6270e-14
6.7100e+03,1.6265e-14
6.7200e+03,1.6261e-14
6.7300e+03,1.6257e-14
6.7400e+03,1.6253e-14
6.7500e+03,1.6249e-14
6.7600e+03,1.6245e-14
6.7700e+03,1.6241e-14
6.7800e+03,1.6237e-14
6.7900e+03,1.6233e-14
6.8000e+03,1.6229e-14
6.8100e+03,1.6226e-14
6.8200e+03,1.6222e-14
6.8300e+03,1.6218e-14
6.8400e+03,1.6215e-14
6.8500e+03,1.6211e-14
6.8600e+03,1.6208e-14
6.8700e+03,1.6204e-14
6.8800e+03,1.6201e-14
6.8900e+03,1.6198e-14
6.9000e+03,1.6194e-14
6.9100e+03,1.6191e-14
6.9200e+03,1.6188e-14
6.9300e+03,1.6185e-14
6.9400e+03,1.6182e-14
6.9500e+03,1.6179e-14
6.9600e+03,1.6176e-14
6.9700e+03,1.6173e-14
6.9800e+03,1.6170e-14
6.9900e+03,1.6167e-14
7.0000e+03,1.6164e-14
7.0100e+03,1.6161e-14
7.0200e+03,1.6158e-14
7.0300e+03,1.6155e-14
7.0400e+03,1.6153e-14
7.0500e+03,1.6150e-14
7.0600e+03,1.6147e-14
7.0700e+03,1.6144e-14
7.0800e+03,1.6142e-14
7.0900e+03,1.6139e-14
7.1000e+03,1.6136e-14
7.1100e+03,1.6134e-14
7.1200e+03,1.6131e-14
7.1300e+03,1.6128e-14
7.1400e+03,1.6126e-14
7.1500e+03,1.6123e-14
7.1600e+03,1.6121e-14
7.1700e+03,1.6118e-14
7.1800e+03,1.6116e-14
7.1900e+03,1.6113e-14
7.2000e+03,1.6111e-14
7.2100e+03,1.6109e-14
7.2200e+03,1.6106e-14
7.2300e+03,1.6104e-14
7.2400e+03,1.6102e-14
7.2500e+03,1.6099e-14
7.2600e+03,1.6097e-14
7.2700e+03,1.6095e-14
7.2800e+03,1.6093e-14
7.2900e+03,1.6091e-14
7.3000e+03,1.6089e-14
7.3100e+03,1.6087e-14
7.3200e+03,1.6085e-14
7.3300e+03,1.6083e-14
7.3400e+03,1.6081e-14
7.3500e+03,1.6079e-14
7.3600e+03,1.6077e-14
7.3700e+03,1.6075e-14
7.3800e+03,1.6073e-14
7.3900e+03,1.6072e-14
7.4000e+03,1.6070e-14
7.4100e+03,1.6068e-14
7.4200e+03,1.6066e-14
7.4300e+03,1.6065e-14
7.4400e+03,1.6063e-14
7.4500e+03,1.6061e-14
7.4600e+03,1.6060e-14
7.4700e+03,1.6058e-14
7.4800e+03,1.6056e-14
7.4900e+03,1.6055e-14
7.5000e+03,1.6053e-14
7.5100e+03,1.6051e-14
7.5200e+03,1.6049e-14
7.5300e+03,1.6047e-14
7.5400e+03,1.6046e-14
7.5500e+03,1.6044e-14
7.5600e+03,1.6042e-14
7.5700e+03,1.6040e-14
7.5800e+03,1.6038e-14
7.5900e+03,1.6036e-14
7.6000e+03,1.6034e-14
7.6100e+03,1.6032e-14
7.6200e+03,1.6030e-14
7.6300e+03,1.6028e-14
7.6400e+03,1.6025e-14
7.6500e+03,1.6023e-14
7.6600e+03,1.6021e-14
7.6700e+03,1.6019e-14
7.6800e+03,1.6016e-14
7.6900e+03,1.6014e-14
7.7000e+03,1.6011e-14
7.7100e+03,1.6009e-14
7.7200e+03,1.6006e-14
7.7300e+03,1.6003e-14
7.7400e+03,1.6001e-14
7.7500e+03,1.5998e-14
7.7600e+03,1.5995e-14
7.7700e+03,1.5992e-14
7.7800e+03,1.5990e-14
7.7900e+03,1.5987e-14
7.8000e+03,1.5984e-14
7.8100e+03,1.5981e-14
7.8200e+03,1.5978e-14
7.8300e+03,1.5975e-14
7.8400e+03,1.5972e-14
7.8500e+03,1.5969e-14
7.8600e+03,1.5966e-14
7.8700e+03,1.5962e-14
7.8800e+03,1.5959e-14
7.8900e+03,1.5956e-14
7.9000e+03,1.5953e-14
7.9100e+03,1.5950e-14
7.9200e+03,1.5946e-14
7.9300e+03,1.5943e-14
7.9400e+03,1.5940e-14
7.9500e+03,1.5936e-14
7.9600e+03,1.5933e-14
7.9700e+03,1.5930e-14
7.9800e+03,1.5926e-14
7.9900e+03,1.5923e-14
8.0000e+03,1.5919e-14
8.0100e+03,1.5916e-14
8.0200e+03,1.5912e-14
8.0300e+03,1.5908e-14
8.0400e+03,1.5904e-14
8.0500e+03,1.5901e-14
8.0600e+03,1.5897e-14
8.0700e+03,1.5893e-14
8.0800e+03,1.5889e-14
8.0900e+03,1.5885e-14
8.1000e+03,1.5881e-14
8.1100e+03,1.5876e-14
8.1200e+03,1.5872e-14
8.1300e+03,1.5868e-14
8.1400e+03,1.5863e-14
8.1500e+03,1.5859e-14
8.1600e+03,1.5854e-14
8.1700e+03,1.5849e-14
8.1800e+03,1.5844e-14
8.1900e+03,1.5840e-14
8.2000e+03,1.5835e-14
8.2100e+03,1.5830e-14
8.2200e+03,1.5824e-14
8.2300e+03,1.5819e-14
8.2400e+03,1.5814e-14
8.2500e+03,1.5808e-14
8.2600e+03,1.5803e-14
8.2700e+03,1.5797e-14
8.2800e+03,1.5792e-14
8.2900e+03,1.5786e-14
8.3000e+03,1.5780e-14
8.3100e+03,1.5775e-14
8.3200e+03,1.5769e-14
8.3300e+03,1.5763e-14
8.3400e+03,1.5757e-14
8.3500e+03,1.5751e-14
8.3600e+03,1.5746e-14
8.3700e+03,1.5740e-14
8.3800e+03,1.5734e-14
8.3900e+03,1.5728e-14
8.4000e+03,1.5723e-14
8.4100e+03,1.5717e-14
8.4200e+03,1.5712e-14
8.4300e+03,1.5706e-14
8.4400e+03,1.5701e-14
8.4500e+03,1.5695e-14
8.4600e+03,1.5690e-14
8.4700e+03,1.5685e-14
8.4800e+03,1.5680e-14
8.4900e+03,1.5676e-14
8.5000e+03,1.5671e-14
8.5100e+03,1.5667e-14
8.5200e+03,1.5663e-14
8.5300e+03,1.5659e-14
8.5400e+03,1.5655e-14
8.5500e+03,1.5651e-14
8.5600e+03,1.5648e-14
8.5700e+03,1.5645e-14
8.5800e+03,1.5642e-14
8.5900e+03,1.5639e-14
8.6000e+03,1.5636e-14
8.6100e+03,1.5634e-14
8.6200e+03,1.5632e-14
8.6300e+03,1.5631e-14
8.6400e+03,1.5629e-14
8.6500e+03,1.5628e-14
8.6600e+03,1.5627e-14
8.6700e+03,1.5626e-14
8.6800e+03,1.5626e-14
8.6900e+03,1.5625e-14
8.7000e+03,1.5625e-14
8.7100e+03,1.5626e-14
8.7200e+03,1.5626e-14
8.7300e+03,1.5627e-14
8.7400e+03,1.5628e-14
8.7500e+03,1.5629e-14
8.7600e+03,1.5630e-14
8.7700e+03,1.5632e-14
8.7800e+03,1.5634e-14
8.7900e+03,1.5636e-14
8.8000e+03,1.5638e-14
8.8100e+03,1.5640e-14
8.8200e+03,1.5642e-14
8.8300e+03,1.5645e-14
8.8400e+03,1.5647e-14
8.8500e+03,1.5650e-14
8.8600e+03,1.5653e-14
8.8700e+03,1.5656e-14
8.8800e+03,1.5658e-14
8.8900e+03,1.5661e-14
8.9000e+03,1.5664e-14
8.9100e+03,1.5667e-14
8.9200e+03,1.5670e-14
8.9300e+03,1.5673e-14
8.9400e+03,1.5676e-14
8.9500e+03,1.5679e-14
8.9600e+03,1.5682e-14
8.9700e+03,1.5685e-14
8.9800e+03,1.5687e-14
8.9900e+03,1.5690e-14
9.0000e+03,1.5693e-14
9.0100e+03,1.5695e-14
9.0200e+03,1.5697e-14
9.0300e+03,1.5699e-14
9.0400e+03,1.5701e-14
9.0500e+03,1.5703e-14
9.0600e+03,1.5705e-14
9.0700e+03,1.5706e-14
