# Time , Side-Flux
0.0000e+00,0.0000e+00
1.0000e+01,7.2974e-11
2.0000e+01,1.4590e-10
3.0000e+01,2.1874e-10
4.0000e+01,2.9144e-10
5.0000e+01,3.6397e-10
6.0000e+01,4.3627e-10
7.0000e+01,5.0830e-10
8.0000e+01,5.8003e-10
9.0000e+01,6.5141e-10
1.0000e+02,7.2240e-10
1.1000e+02,7.9296e-10
1.2000e+02,8.6305e-10
1.3000e+02,9.3264e-10
1.4000e+02,1.0017e-09
1.5000e+02,1.0702e-09
1.6000e+02,1.1381e-09
1.7000e+02,1.2053e-09
1.8000e+02,1.2719e-09
1.9000e+02,1.3378e-09
2.0000e+02,1.4030e-09
2.1000e+02,1.4674e-09
2.2000e+02,1.5312e-09
2.3000e+02,1.5941e-09
2.4000e+02,1.6562e-09
2.5000e+02,1.7175e-09
2.6000e+02,1.7780e-09
2.7000e+02,1.8377e-09
2.8000e+02,1.8965e-09
2.9000e+02,1.9545e-09
3.0000e+02,2.0116e-09
3.1000e+02,2.0679e-09
3.2000e+02,2.1232e-09
3.3000e+02,2.1777e-09
3.4000e+02,2.2314e-09
3.5000e+02,2.2841e-09
3.6000e+02,2.3360e-09
3.7000e+02,2.3870e-09
3.8000e+02,2.4371e-09
3.9000e+02,2.4864e-09
4.0000e+02,2.5348e-09
4.1000e+02,2.5824e-09
4.2000e+02,2.6291e-09
4.3000e+02,2.6750e-09
4.4000e+02,2.7201e-09
4.5000e+02,2.7643e-09
4.6000e+02,2.8077e-09
4.7000e+02,2.8504e-09
4.8000e+02,2.8922e-09
4.9000e+02,2.9333e-09
5.0000e+02,2.9736e-09
5.1000e+02,3.0131e-09
5.2000e+02,3.0519e-09
5.3000e+02,3.0900e-09
5.4000e+02,3.1273e-09
5.5000e+02,3.1640e-09
5.6000e+02,3.2000e-09
5.7000e+02,3.2352e-09
5.8000e+02,3.2698e-09
5.9000e+02,3.3038e-09
6.0000e+02,3.3371e-09
6.1000e+02,3.3698e-09
6.2000e+02,3.4019e-09
6.3000e+02,3.4333e-09
6.4000e+02,3.4642e-09
6.5000e+02,3.4945e-09
6.6000e+02,3.5242e-09
6.7000e+02,3.5533e-09
6.8000e+02,3.5819e-09
6.9000e+02,3.6100e-09
7.0000e+02,3.6376e-09
7.1000e+02,3.6646e-09
7.2000e+02,3.6911e-09
7.3000e+02,3.7172e-09
7.4000e+02,3.7427e-09
7.5000e+02,3.7678e-09
7.6000e+02,3.7924e-09
7.7000e+02,3.8166e-09
7.8000e+02,3.8403e-09
7.9000e+02,3.8636e-09
8.0000e+02,3.8864e-09
8.1000e+02,3.9088e-09
8.2000e+02,3.9309e-09
8.3000e+02,3.9525e-09
8.4000e+02,3.9737e-09
8.5000e+02,3.9945e-09
8.6000e+02,4.0150e-09
8.7000e+02,4.0350e-09
8.8000e+02,4.0547e-09
8.9000e+02,4.0741e-09
9.0000e+02,4.0931e-09
9.1000e+02,4.1117e-09
9.2000e+02,4.1300e-09
9.3000e+02,4.1479e-09
9.4000e+02,4.1655e-09
9.5000e+02,4.1828e-09
9.6000e+02,4.1998e-09
9.7000e+02,4.2164e-09
9.8000e+02,4.2327e-09
9.9000e+02,4.2487e-09
1.0000e+03,4.2643e-09
1.0100e+03,4.2797e-09
1.0200e+03,4.2947e-09
1.0300e+03,4.3095e-09
1.0400e+03,4.3239e-09
1.0500e+03,4.3380e-09
1.0600e+03,4.3519e-09
1.0700e+03,4.3654e-09
1.0800e+03,4.3786e-09
1.0900e+03,4.3915e-09
1.1000e+03,4.4041e-09
1.1100e+03,4.4165e-09
1.1200e+03,4.4285e-09
1.1300e+03,4.4402e-09
1.1400e+03,4.4516e-09
1.1500e+03,4.4627e-09
1.1600e+03,4.4735e-09
1.1700e+03,4.4841e-09
1.1800e+03,4.4943e-09
1.1900e+03,4.5042e-09
1.2000e+03,4.5138e-09
1.2100e+03,4.5231e-09
1.2200e+03,4.5321e-09
1.2300e+03,4.5409e-09
1.2400e+03,4.5493e-09
1.2500e+03,4.5574e-09
1.2600e+03,4.5652e-09
1.2700e+03,4.5727e-09
1.2800e+03,4.5800e-09
1.2900e+03,4.5869e-09
1.3000e+03,4.5935e-09
1.3100e+03,4.5999e-09
1.3200e+03,4.6060e-09
1.3300e+03,4.6117e-09
1.3400e+03,4.6172e-09
1.3500e+03,4.6225e-09
1.3600e+03,4.6274e-09
1.3700e+03,4.6321e-09
1.3800e+03,4.6365e-09
1.3900e+03,4.6407e-09
1.4000e+03,4.6446e-09
1.4100e+03,4.6482e-09
1.4200e+03,4.6516e-09
1.4300e+03,4.6548e-09
1.4400e+03,4.6577e-09
1.4500e+03,4.6604e-09
1.4600e+03,4.6629e-09
1.4700e+03,4.6651e-09
1.4800e+03,4.6672e-09
1.4900e+03,4.6690e-09
1.5000e+03,4.6707e-09
1.5100e+03,4.6722e-09
1.5200e+03,4.6735e-09
1.5300e+03,4.6747e-09
1.5400e+03,4.6756e-09
1.5500e+03,4.6765e-09
1.5600e+03,4.6772e-09
1.5700e+03,4.6777e-09
1.5800e+03,4.6782e-09
1.5900e+03,4.6785e-09
1.6000e+03,4.6787e-09
1.6100e+03,4.6788e-09
1.6200e+03,4.6788e-09
1.6300e+03,4.6788e-09
1.6400e+03,4.6787e-09
1.6500e+03,4.6785e-09
1.6600e+03,4.6783e-09
1.6700e+03,4.6780e-09
1.6800e+03,4.6777e-09
1.6900e+03,4.6773e-09
1.7000e+03,4.6770e-09
1.7100e+03,4.6766e-09
1.7200e+03,4.6763e-09
1.7300e+03,4.6759e-09
1.7400e+03,4.6756e-09
1.7500e+03,4.6752e-09
1.7600e+03,4.6750e-09
1.7700e+03,4.6747e-09
1.7800e+03,4.6745e-09
1.7900e+03,4.6744e-09
1.8000e+03,4.6743e-09
1.8100e+03,4.6743e-09
1.8200e+03,4.6744e-09
1.8300e+03,4.6745e-09
1.8400e+03,4.6748e-09
1.8500e+03,4.6751e-09
1.8600e+03,4.6755e-09
1.8700e+03,4.6760e-09
1.8800e+03,4.6767e-09
1.8900e+03,4.6775e-09
1.9000e+03,4.6783e-09
1.9100e+03,4.6793e-09
1.9200e+03,4.6805e-09
1.9300e+03,4.6817e-09
1.9400e+03,4.6831e-09
1.9500e+03,4.6847e-09
1.9600e+03,4.6864e-09
1.9700e+03,4.6882e-09
1.9800e+03,4.6902e-09
1.9900e+03,4.6923e-09
2.0000e+03,4.6946e-09
2.0100e+03,4.6971e-09
2.0200e+03,4.6997e-09
2.0300e+03,4.7024e-09
2.0400e+03,4.7053e-09
2.0500e+03,4.7084e-09
2.0600e+03,4.7116e-09
2.0700e+03,4.7150e-09
2.0800e+03,4.7186e-09
2.0900e+03,4.7223e-09
2.1000e+03,4.7262e-09
2.1100e+03,4.7302e-09
2.1200e+03,4.7344e-09
2.1300e+03,4.7387e-09
2.1400e+03,4.7432e-09
2.1500e+03,4.7478e-09
2.1600e+03,4.7526e-09
2.1700e+03,4.7575e-09
2.1800e+03,4.7626e-09
2.1900e+03,4.7678e-09
2.2000e+03,4.7731e-09
2.2100e+03,4.7786e-09
2.2200e+03,4.7842e-09
2.2300e+03,4.7899e-09
2.2400e+03,4.7957e-09
2.2500e+03,4.8017e-09
2.2600e+03,4.8077e-09
2.2700e+03,4.8139e-09
2.2800e+03,4.8201e-09
2.2900e+03,4.8265e-09
2.3000e+03,4.8330e-09
2.3100e+03,4.8395e-09
2.3200e+03,4.8461e-09
2.3300e+03,4.8529e-09
2.3400e+03,4.8596e-09
2.3500e+03,4.8665e-09
2.3600e+03,4.8734e-09
2.3700e+03,4.8804e-09
2.3800e+03,4.8874e-09
2.3900e+03,4.8945e-09
2.4000e+03,4.9016e-09
2.4100e+03,4.9088e-09
2.4200e+03,4.9160e-09
2.4300e+03,4.9233e-09
2.4400e+03,4.9306e-09
2.4500e+03,4.9379e-09
2.4600e+03,4.9453e-09
2.4700e+03,4.9526e-09
2.4800e+03,4.9600e-09
2.4900e+03,4.9675e-09
2.5000e+03,4.9749e-09
2.5100e+03,4.9823e-09
2.5200e+03,4.9898e-09
2.5300e+03,4.9973e-09
2.5400e+03,5.0048e-09
2.5500e+03,5.0123e-09
2.5600e+03,5.0198e-09
2.5700e+03,5.0273e-09
2.5800e+03,5.0348e-09
2.5900e+03,5.0423e-09
2.6000e+03,5.0498e-09
2.6100e+03,5.0574e-09
2.6200e+03,5.0649e-09
2.6300e+03,5.0724e-09
2.6400e+03,5.0800e-09
2.6500e+03,5.0875e-09
2.6600e+03,5.0951e-09
2.6700e+03,5.1026e-09
2.6800e+03,5.1102e-09
2.6900e+03,5.1177e-09
2.7000e+03,5.1253e-09
2.7100e+03,5.1329e-09
2.7200e+03,5.1404e-09
2.7300e+03,5.1480e-09
2.7400e+03,5.1556e-09
2.7500e+03,5.1632e-09
2.7600e+03,5.1709e-09
2.7700e+03,5.1785e-09
2.7800e+03,5.1861e-09
2.7900e+03,5.1937e-09
2.8000e+03,5.2014e-09
2.8100e+03,5.2090e-09
2.8200e+03,5.2167e-09
2.8300e+03,5.2244e-09
2.8400e+03,5.2321e-09
2.8500e+03,5.2397e-09
2.8600e+03,5.2474e-09
2.8700e+03,5.2551e-09
2.8800e+03,5.2628e-09
2.8900e+03,5.2706e-09
2.9000e+03,5.2783e-09
2.9100e+03,5.2860e-09
2.9200e+03,5.2937e-09
2.9300e+03,5.3014e-09
2.9400e+03,5.3091e-09
2.9500e+03,5.3168e-09
2.9600e+03,5.3245e-09
2.9700e+03,5.3322e-09
2.9800e+03,5.3399e-09
2.9900e+03,5.3475e-09
3.0000e+03,5.3551e-09
3.0100e+03,5.3628e-09
3.0200e+03,5.3704e-09
3.0300e+03,5.3779e-09
3.0400e+03,5.3855e-09
3.0500e+03,5.3930e-09
3.0600e+03,5.4004e-09
3.0700e+03,5.4079e-09
3.0800e+03,5.4153e-09
3.0900e+03,5.4226e-09
3.1000e+03,5.4299e-09
3.1100e+03,5.4371e-09
3.1200e+03,5.4443e-09
3.1300e+03,5.4514e-09
3.1400e+03,5.4585e-09
3.1500e+03,5.4655e-09
3.1600e+03,5.4725e-09
3.1700e+03,5.4793e-09
3.1800e+03,5.4861e-09
3.1900e+03,5.4928e-09
3.2000e+03,5.4994e-09
3.2100e+03,5.5060e-09
3.2200e+03,5.5125e-09
3.2300e+03,5.5188e-09
3.2400e+03,5.5251e-09
3.2500e+03,5.5313e-09
3.2600e+03,5.5374e-09
3.2700e+03,5.5434e-09
3.2800e+03,5.5492e-09
3.2900e+03,5.5550e-09
3.3000e+03,5.5607e-09
3.3100e+03,5.5663e-09
3.3200e+03,5.5717e-09
3.3300e+03,5.5771e-09
3.3400e+03,5.5823e-09
3.3500e+03,5.5874e-09
3.3600e+03,5.5924e-09
3.3700e+03,5.5973e-09
3.3800e+03,5.6021e-09
3.3900e+03,5.6067e-09
3.4000e+03,5.6112e-09
3.4100e+03,5.6156e-09
3.4200e+03,5.6199e-09
3.4300e+03,5.6240e-09
3.4400e+03,5.6280e-09
3.4500e+03,5.6319e-09
3.4600e+03,5.6357e-09
3.4700e+03,5.6394e-09
3.4800e+03,5.6429e-09
3.4900e+03,5.6463e-09
3.5000e+03,5.6496e-09
3.5100e+03,5.6527e-09
3.5200e+03,5.6557e-09
3.5300e+03,5.6586e-09
3.5400e+03,5.6614e-09
3.5500e+03,5.6641e-09
3.5600e+03,5.6666e-09
3.5700e+03,5.6691e-09
3.5800e+03,5.6714e-09
3.5900e+03,5.6736e-09
3.6000e+03,5.6756e-09
3.6100e+03,5.6776e-09
3.6200e+03,5.6795e-09
3.6300e+03,5.6812e-09
3.6400e+03,5.6829e-09
3.6500e+03,5.6844e-09
3.6600e+03,5.6858e-09
3.6700e+03,5.6872e-09
3.6800e+03,5.6884e-09
3.6900e+03,5.6896e-09
3.7000e+03,5.6906e-09
3.7100e+03,5.6916e-09
3.7200e+03,5.6925e-09
3.7300e+03,5.6933e-09
3.7400e+03,5.6940e-09
3.7500e+03,5.6947e-09
3.7600e+03,5.6953e-09
3.7700e+03,5.6958e-09
3.7800e+03,5.6962e-09
3.7900e+03,5.6966e-09
3.8000e+03,5.6970e-09
3.8100e+03,5.6972e-09
3.8200e+03,5.6974e-09
3.8300e+03,5.6976e-09
3.8400e+03,5.6977e-09
3.8500e+03,5.6978e-09
3.8600e+03,5.6979e-09
3.8700e+03,5.6979e-09
3.8800e+03,5.6978e-09
3.8900e+03,5.6978e-09
3.9000e+03,5.6977e-09
3.9100e+03,5.6976e-09
3.9200e+03,5.6974e-09
3.9300e+03,5.6973e-09
3.9400e+03,5.6971e-09
3.9500e+03,5.6969e-09
3.9600e+03,5.6967e-09
3.9700e+03,5.6965e-09
3.9800e+03,5.6963e-09
3.9900e+03,5.6961e-09
4.0000e+03,5.6959e-09
4.0100e+03,5.6957e-09
4.0200e+03,5.6955e-09
4.0300e+03,5.6953e-09
4.0400e+03,5.6951e-09
4.0500e+03,5.6949e-09
4.0600e+03,5.6947e-09
4.0700e+03,5.6945e-09
4.0800e+03,5.6943e-09
4.0900e+03,5.6942e-09
4.1000e+03,5.6940e-09
4.1100e+03,5.6939e-09
4.1200e+03,5.6938e-09
4.1300e+03,5.6937e-09
4.1400e+03,5.6936e-09
4.1500e+03,5.6935e-09
4.1600e+03,5.6935e-09
4.1700e+03,5.6935e-09
4.1800e+03,5.6935e-09
4.1900e+03,5.6935e-09
4.2000e+03,5.6935e-09
4.2100e+03,5.6935e-09
4.2200e+03,5.6936e-09
4.2300e+03,5.6937e-09
4.2400e+03,5.6938e-09
4.2500e+03,5.6939e-09
4.2600e+03,5.6940e-09
4.2700e+03,5.6942e-09
4.2800e+03,5.6943e-09
4.2900e+03,5.6945e-09
4.3000e+03,5.6947e-09
4.3100e+03,5.6950e-09
4.3200e+03,5.6952e-09
4.3300e+03,5.6955e-09
4.3400e+03,5.6958e-09
4.3500e+03,5.6960e-09
4.3600e+03,5.6964e-09
4.3700e+03,5.6967e-09
4.3800e+03,5.6970e-09
4.3900e+03,5.6974e-09
4.4000e+03,5.6978e-09
4.4100e+03,5.6982e-09
4.4200e+03,5.6986e-09
4.4300e+03,5.6990e-09
4.4400e+03,5.6994e-09
4.4500e+03,5.6999e-09
4.4600e+03,5.7004e-09
4.4700e+03,5.7008e-09
4.4800e+03,5.7013e-09
4.4900e+03,5.7019e-09
4.5000e+03,5.7024e-09
4.5100e+03,5.7029e-09
4.5200e+03,5.7035e-09
4.5300e+03,5.7041e-09
4.5400e+03,5.7047e-09
4.5500e+03,5.7053e-09
4.5600e+03,5.7059e-09
4.5700e+03,5.7065e-09
4.5800e+03,5.7072e-09
4.5900e+03,5.7079e-09
4.6000e+03,5.7085e-09
4.6100e+03,5.7092e-09
4.6200e+03,5.7100e-09
4.6300e+03,5.7107e-09
4.6400e+03,5.7115e-09
4.6500e+03,5.7122e-09
4.6600e+03,5.7130e-09
4.6700e+03,5.7138e-09
4.6800e+03,5.7146e-09
4.6900e+03,5.7155e-09
4.7000e+03,5.7164e-09
4.7100e+03,5.7172e-09
4.7200e+03,5.7181e-09
4.7300e+03,5.7191e-09
4.7400e+03,5.7200e-09
4.7500e+03,5.7210e-09
4.7600e+03,5.7220e-09
4.7700e+03,5.7230e-09
4.7800e+03,5.7240e-09
4.7900e+03,5.7251e-09
4.8000e+03,5.7261e-09
4.8100e+03,5.7272e-09
4.8200e+03,5.7284e-09
4.8300e+03,5.7295e-09
4.8400e+03,5.7307e-09
4.8500e+03,5.7319e-09
4.8600e+03,5.7331e-09
4.8700e+03,5.7344e-09
4.8800e+03,5.7356e-09
4.8900e+03,5.7369e-09
4.9000e+03,5.7383e-09
4.9100e+03,5.7396e-09
4.9200e+03,5.7410e-09
4.9300e+03,5.7424e-09
4.9400e+03,5.7438e-09
4.9500e+03,5.7453e-09
4.9600e+03,5.7467e-09
4.9700e+03,5.7482e-09
4.9800e+03,5.7497e-09
4.9900e+03,5.7513e-09
5.0000e+03,5.7529e-09
5.0100e+03,5.7545e-09
5.0200e+03,5.7561e-09
5.0300e+03,5.7577e-09
5.0400e+03,5.7593e-09
5.0500e+03,5.7610e-09
5.0600e+03,5.7627e-09
5.0700e+03,5.7644e-09
5.0800e+03,5.7661e-09
5.0900e+03,5.7679e-09
5.1000e+03,5.7696e-09
5.1100e+03,5.7713e-09
5.1200e+03,5.7731e-09
5.1300e+03,5.7749e-09
5.1400e+03,5.7766e-09
5.1500e+03,5.7784e-09
5.1600e+03,5.7802e-09
5.1700e+03,5.7820e-09
5.1800e+03,5.7837e-09
5.1900e+03,5.7855e-09
5.2000e+03,5.7873e-09
5.2100e+03,5.7890e-09
5.2200e+03,5.7908e-09
5.2300e+03,5.7925e-09
5.2400e+03,5.7942e-09
5.2500e+03,5.7959e-09
5.2600e+03,5.7976e-09
5.2700e+03,5.7993e-09
5.2800e+03,5.8009e-09
5.2900e+03,5.8025e-09
5.3000e+03,5.8041e-09
5.3100e+03,5.8057e-09
5.3200e+03,5.8072e-09
5.3300e+03,5.8087e-09
5.3400e+03,5.8101e-09
5.3500e+03,5.8115e-09
5.3600e+03,5.8129e-09
5.3700e+03,5.8142e-09
5.3800e+03,5.8155e-09
5.3900e+03,5.8168e-09
5.4000e+03,5.8180e-09
5.4100e+03,5.8191e-09
5.4200e+03,5.8203e-09
5.4300e+03,5.8213e-09
5.4400e+03,5.8223e-09
5.4500e+03,5.8233e-09
5.4600e+03,5.8242e-09
5.4700e+03,5.8250e-09
5.4800e+03,5.8258e-09
5.4900e+03,5.8266e-09
5.5000e+03,5.8272e-09
5.5100e+03,5.8279e-09
5.5200e+03,5.8284e-09
5.5300e+03,5.8289e-09
5.5400e+03,5.8294e-09
5.5500e+03,5.8298e-09
5.5600e+03,5.8301e-09
5.5700e+03,5.8304e-09
5.5800e+03,5.8306e-09
5.5900e+03,5.8308e-09
5.6000e+03,5.8309e-09
5.6100e+03,5.8310e-09
5.6200e+03,5.8310e-09
5.6300e+03,5.8309e-09
5.6400e+03,5.8308e-09
5.6500e+03,5.8306e-09
5.6600e+03,5.8304e-09
5.6700e+03,5.8301e-09
5.6800e+03,5.8298e-09
5.6900e+03,5.8294e-09
5.7000e+03,5.8289e-09
5.7100e+03,5.8284e-09
5.7200e+03,5.8279e-09
5.7300e+03,5.8273e-09
5.7400e+03,5.8266e-09
5.7500e+03,5.8259e-09
5.7600e+03,5.8252e-09
5.7700e+03,5.8244e-09
5.7800e+03,5.8236e-09
5.7900e+03,5.8227e-09
5.8000e+03,5.8218e-09
5.8100e+03,5.8208e-09
5.8200e+03,5.8198e-09
5.8300e+03,5.8187e-09
5.8400e+03,5.8177e-09
5.8500e+03,5.8165e-09
5.8600e+03,5.8154e-09
5.8700e+03,5.8142e-09
5.8800e+03,5.8129e-09
5.8900e+03,5.8116e-09
5.9000e+03,5.8103e-09
5.9100e+03,5.8090e-09
5.9200e+03,5.8076e-09
5.9300e+03,5.8062e-09
5.9400e+03,5.8048e-09
5.9500e+03,5.8033e-09
5.9600e+03,5.8018e-09
5.9700e+03,5.8003e-09
5.9800e+03,5.7988e-09
5.9900e+03,5.7972e-09
6.0000e+03,5.7956e-09
6.0100e+03,5.7940e-09
6.0200e+03,5.7924e-09
6.0300e+03,5.7907e-09
6.0400e+03,5.7890e-09
6.0500e+03,5.7873e-09
6.0600e+03,5.7856e-09
6.0700e+03,5.7839e-09
6.0800e+03,5.7821e-09
6.0900e+03,5.7804e-09
6.1000e+03,5.7786e-09
6.1100e+03,5.7768e-09
6.1200e+03,5.7749e-09
6.1300e+03,5.7731e-09
6.1400e+03,5.7712e-09
6.1500e+03,5.7694e-09
6.1600e+03,5.7675e-09
6.1700e+03,5.7656e-09
6.1800e+03,5.7637e-09
6.1900e+03,5.7618e-09
6.2000e+03,5.7599e-09
6.2100e+03,5.7579e-09
6.2200e+03,5.7560e-09
6.2300e+03,5.7540e-09
6.2400e+03,5.7521e-09
6.2500e+03,5.7501e-09
6.2600e+03,5.7481e-09
6.2700e+03,5.7461e-09
6.2800e+03,5.7442e-09
6.2900e+03,5.7422e-09
6.3000e+03,5.7402e-09
6.3100e+03,5.7382e-09
6.3200e+03,5.7362e-09
6.3300e+03,5.7342e-09
6.3400e+03,5.7322e-09
6.3500e+03,5.7302e-09
6.3600e+03,5.7282e-09
6.3700e+03,5.7262e-09
6.3800e+03,5.7242e-09
6.3900e+03,5.7222e-09
6.4000e+03,5.7202e-09
6.4100e+03,5.7183e-09
6.4200e+03,5.7163e-09
6.4300e+03,5.7143e-09
6.4400e+03,5.7123e-09
6.4500e+03,5.7103e-09
6.4600e+03,5.7084e-09
6.4700e+03,5.7064e-09
6.4800e+03,5.7045e-09
6.4900e+03,5.7025e-09
6.5000e+03,5.7006e-09
6.5100e+03,5.6986e-09
6.5200e+03,5.6967e-09
6.5300e+03,5.6948e-09
6.5400e+03,5.6928e-09
6.5500e+03,5.6909e-09
6.5600e+03,5.6890e-09
6.5700e+03,5.6871e-09
6.5800e+03,5.6853e-09
6.5900e+03,5.6834e-09
6.6000e+03,5.6815e-09
6.6100e+03,5.6797e-09
6.6200e+03,5.6778e-09
6.6300e+03,5.6760e-09
6.6400e+03,5.6742e-09
6.6500e+03,5.6724e-09
6.6600e+03,5.6707e-09
6.6700e+03,5.6689e-09
6.6800e+03,5.6672e-09
6.6900e+03,5.6655e-09
6.7000e+03,5.6638e-09
6.7100e+03,5.6621e-09
6.7200e+03,5.6605e-09
6.7300e+03,5.6588e-09
6.7400e+03,5.6572e-09
6.7500e+03,5.6557e-09
6.7600e+03,5.6541e-09
6.7700e+03,5.6526e-09
6.7800e+03,5.6511e-09
6.7900e+03,5.6497e-09
6.8000e+03,5.6483e-09
6.8100e+03,5.6469e-09
6.8200e+03,5.6455e-09
6.8300e+03,5.6442e-09
6.8400e+03,5.6429e-09
6.8500e+03,5.6416e-09
6.8600e+03,5.6404e-09
6.8700e+03,5.6392e-09
6.8800e+03,5.6380e-09
6.8900e+03,5.6369e-09
6.9000e+03,5.6358e-09
6.9100e+03,5.6347e-09
6.9200e+03,5.6337e-09
6.9300e+03,5.6327e-09
6.9400e+03,5.6318e-09
6.9500e+03,5.6308e-09
6.9600e+03,5.6299e-09
6.9700e+03,5.6291e-09
6.9800e+03,5.6282e-09
6.9900e+03,5.6274e-09
7.0000e+03,5.6266e-09
7.0100e+03,5.6259e-09
7.0200e+03,5.6251e-09
7.0300e+03,5.6244e-09
7.0400e+03,5.6238e-09
7.0500e+03,5.6231e-09
7.0600e+03,5.6225e-09
7.0700e+03,5.6219e-09
7.0800e+03,5.6213e-09
7.0900e+03,5.6208e-09
7.1000e+03,5.6202e-09
7.1100e+03,5.6197e-09
7.1200e+03,5.6192e-09
7.1300e+03,5.6187e-09
7.1400e+03,5.6183e-09
7.1500e+03,5.6178e-09
7.1600e+03,5.6174e-09
7.1700e+03,5.6170e-09
7.1800e+03,5.6166e-09
7.1900e+03,5.6163e-09
7.2000e+03,5.6159e-09
7.2100e+03,5.6156e-09
7.2200e+03,5.6152e-09
7.2300e+03,5.6149e-09
7.2400e+03,5.6146e-09
7.2500e+03,5.6143e-09
7.2600e+03,5.6140e-09
7.2700e+03,5.6138e-09
7.2800e+03,5.6135e-09
7.2900e+03,5.6133e-09
7.3000e+03,5.6130e-09
7.3100e+03,5.6128e-09
7.3200e+03,5.6126e-09
7.3300e+03,5.6123e-09
7.3400e+03,5.6121e-09
7.3500e+03,5.6119e-09
7.3600e+03,5.6117e-09
7.3700e+03,5.6115e-09
7.3800e+03,5.6113e-09
7.3900e+03,5.6110e-09
7.4000e+03,5.6108e-09
7.4100e+03,5.6106e-09
7.4200e+03,5.6104e-09
7.4300e+03,5.6101e-09
7.4400e+03,5.6099e-09
7.4500e+03,5.6096e-09
7.4600e+03,5.6094e-09
7.4700e+03,5.6091e-09
7.4800e+03,5.6088e-09
7.4900e+03,5.6085e-09
7.5000e+03,5.6082e-09
7.5100e+03,5.6079e-09
7.5200e+03,5.6075e-09
7.5300e+03,5.6072e-09
7.5400e+03,5.6068e-09
7.5500e+03,5.6064e-09
7.5600e+03,5.6059e-09
7.5700e+03,5.6055e-09
7.5800e+03,5.6050e-09
7.5900e+03,5.6045e-09
7.6000e+03,5.6040e-09
7.6100e+03,5.6035e-09
7.6200e+03,5.6029e-09
7.6300e+03,5.6024e-09
7.6400e+03,5.6018e-09
7.6500e+03,5.6011e-09
7.6600e+03,5.6005e-09
7.6700e+03,5.5998e-09
7.6800e+03,5.5992e-09
7.6900e+03,5.5985e-09
7.7000e+03,5.5978e-09
7.7100e+03,5.5970e-09
7.7200e+03,5.5963e-09
7.7300e+03,5.5955e-09
7.7400e+03,5.5947e-09
7.7500e+03,5.5940e-09
7.7600e+03,5.5932e-09
7.7700e+03,5.5924e-09
7.7800e+03,5.5916e-09
7.7900e+03,5.5907e-09
7.8000e+03,5.5899e-09
7.8100e+03,5.5891e-09
7.8200e+03,5.5883e-09
7.8300e+03,5.5874e-09
7.8400e+03,5.5866e-09
7.8500e+03,5.5858e-09
7.8600e+03,5.5850e-09
7.8700e+03,5.5841e-09
7.8800e+03,5.5833e-09
7.8900e+03,5.5825e-09
7.9000e+03,5.5817e-09
7.9100e+03,5.5809e-09
7.9200e+03,5.5801e-09
7.9300e+03,5.5793e-09
7.9400e+03,5.5785e-09
7.9500e+03,5.5777e-09
7.9600e+03,5.5769e-09
7.9700e+03,5.5761e-09
7.9800e+03,5.5753e-09
7.9900e+03,5.5745e-09
8.0000e+03,5.5737e-09
8.0100e+03,5.5730e-09
8.0200e+03,5.5722e-09
8.0300e+03,5.5714e-09
8.0400e+03,5.5706e-09
8.0500e+03,5.5698e-09
8.0600e+03,5.5689e-09
8.0700e+03,5.5681e-09
8.0800e+03,5.5672e-09
8.0900e+03,5.5664e-09
8.1000e+03,5.5655e-09
8.1100e+03,5.5645e-09
8.1200e+03,5.5636e-09
8.1300e+03,5.5626e-09
8.1400e+03,5.5616e-09
8.1500e+03,5.5606e-09
8.1600e+03,5.5595e-09
8.1700e+03,5.5584e-09
8.1800e+03,5.5572e-09
8.1900e+03,5.5560e-09
8.2000e+03,5.5548e-09
8.2100e+03,5.5535e-09
8.2200e+03,5.5521e-09
8.2300e+03,5.5507e-09
8.2400e+03,5.5493e-09
8.2500e+03,5.5478e-09
8.2600e+03,5.5463e-09
8.2700e+03,5.5447e-09
8.2800e+03,5.5430e-09
8.2900e+03,5.5413e-09
8.3000e+03,5.5395e-09
8.3100e+03,5.5377e-09
8.3200e+03,5.5359e-09
8.3300e+03,5.5340e-09
8.3400e+03,5.5320e-09
8.3500e+03,5.5300e-09
8.3600e+03,5.5279e-09
8.3700e+03,5.5258e-09
8.3800e+03,5.5237e-09
8.3900e+03,5.5215e-09
8.4000e+03,5.5193e-09
8.4100e+03,5.5171e-09
8.4200e+03,5.5149e-09
8.4300e+03,5.5126e-09
8.4400e+03,5.5103e-09
8.4500e+03,5.5080e-09
8.4600e+03,5.5057e-09
8.4700e+03,5.5034e-09
8.4800e+03,5.5011e-09
8.4900e+03,5.4988e-09
8.5000e+03,5.4965e-09
8.5100e+03,5.4942e-09
8.5200e+03,5.4920e-09
8.5300e+03,5.4897e-09
8.5400e+03,5.4876e-09
8.5500e+03,5.4854e-09
8.5600e+03,5.4833e-09
8.5700e+03,5.4812e-09
8.5800e+03,5.4792e-09
8.5900e+03,5.4773e-09
8.6000e+03,5.4754e-09
8.6100e+03,5.4736e-09
8.6200e+03,5.4718e-09
8.6300e+03,5.4701e-09
8.6400e+03,5.4685e-09
8.6500e+03,5.4670e-09
8.6600e+03,5.4656e-09
8.6700e+03,5.4642e-09
8.6800e+03,5.4630e-09
8.6900e+03,5.4618e-09
8.7000e+03,5.4607e-09
8.7100e+03,5.4598e-09
8.7200e+03,5.4589e-09
8.7300e+03,5.4581e-09
8.7400e+03,5.4574e-09
8.7500e+03,5.4568e-09
8.7600e+03,5.4563e-09
8.7700e+03,5.4559e-09
8.7800e+03,5.4556e-09
8.7900e+03,5.4554e-09
8.8000e+03,5.4553e-09
8.8100e+03,5.4553e-09
8.8200e+03,5.4554e-09
8.8300e+03,5.4556e-09
8.8400e+03,5.4558e-09
8.8500e+03,5.4561e-09
8.8600e+03,5.4565e-09
8.8700e+03,5.4570e-09
8.8800e+03,5.4575e-09
8.8900e+03,5.4581e-09
8.9000e+03,5.4588e-09
8.9100e+03,5.4595e-09
8.9200e+03,5.4603e-09
8.9300e+03,5.4611e-09
8.9400e+03,5.4619e-09
8.9500e+03,5.4628e-09
8.9600e+03,5.4637e-09
8.9700e+03,5.4646e-09
8.9800e+03,5.4656e-09
8.9900e+03,5.4665e-09
9.0000e+03,5.4675e-09
9.0100e+03,5.4684e-09
9.0200e+03,5.4693e-09
9.0300e+03,5.4703e-09
9.0400e+03,5.4712e-09
9.0500e+03,5.4720e-09
9.0600e+03,5.4729e-09
9.0700e+03,5.4737e-09
