# Time , Side-Flux
0.0000e+00,0.0000e+00
1.0000e+01,3.2626e-05
2.0000e+01,6.0450e-05
3.0000e+01,8.1203e-05
4.0000e+01,9.5185e-05
5.0000e+01,1.0388e-04
6.0000e+01,1.0889e-04
7.0000e+01,1.1151e-04
8.0000e+01,1.1266e-04
9.0000e+01,1.1297e-04
1.0000e+02,1.1285e-04
1.1000e+02,1.1253e-04
1.2000e+02,1.1218e-04
1.3000e+02,1.1184e-04
1.4000e+02,1.1157e-04
1.5000e+02,1.1137e-04
1.6000e+02,1.1123e-04
1.7000e+02,1.1114e-04
1.8000e+02,1.1109e-04
1.9000e+02,1.1107e-04
2.0000e+02,1.1107e-04
2.1000e+02,1.1107e-04
2.2000e+02,1.1108e-04
2.3000e+02,1.1109e-04
2.4000e+02,1.1110e-04
2.5000e+02,1.1111e-04
2.6000e+02,1.1112e-04
2.7000e+02,1.1113e-04
2.8000e+02,1.1113e-04
2.9000e+02,1.1114e-04
3.0000e+02,1.1114e-04
3.1000e+02,1.1114e-04
3.2000e+02,1.1114e-04
3.3000e+02,1.1113e-04
3.4000e+02,1.1113e-04
3.5000e+02,1.1112e-04
3.6000e+02,1.1113e-04
3.7000e+02,1.1113e-04
3.8000e+02,1.1113e-04
3.9000e+02,1.1112e-04
4.0000e+02,1.1109e-04
4.1000e+02,1.1106e-04
4.2000e+02,1.1103e-04
4.3000e+02,1.1101e-04
4.4000e+02,1.1099e-04
4.5000e+02,1.1097e-04
4.6000e+02,1.1096e-04
4.7000e+02,1.1094e-04
4.8000e+02,1.1092e-04
4.9000e+02,1.1091e-04
5.0000e+02,1.1090e-04
5.1000e+02,1.1089e-04
5.2000e+02,1.1088e-04
5.3000e+02,1.1088e-04
5.4000e+02,1.1088e-04
5.5000e+02,1.1088e-04
5.6000e+02,1.1088e-04
5.7000e+02,1.1087e-04
5.8000e+02,1.1085e-04
5.9000e+02,1.1080e-04
6.0000e+02,1.1071e-04
6.1000e+02,1.1056e-04
6.2000e+02,1.1036e-04
6.3000e+02,1.1012e-04
6.4000e+02,1.0983e-04
6.5000e+02,1.0947e-04
6.6000e+02,1.0903e-04
6.7000e+02,1.0850e-04
6.8000e+02,1.0795e-04
6.9000e+02,1.0744e-04
7.0000e+02,1.0701e-04
7.1000e+02,1.0664e-04
7.2000e+02,1.0628e-04
7.3000e+02,1.0587e-04
7.4000e+02,1.0543e-04
7.5000e+02,1.0503e-04
7.6000e+02,1.0474e-04
7.7000e+02,1.0463e-04
7.8000e+02,1.0472e-04
7.9000e+02,1.0498e-04
8.0000e+02,1.0528e-04
8.1000e+02,1.0550e-04
8.2000e+02,1.0555e-04
8.3000e+02,1.0539e-04
8.4000e+02,1.0509e-04
8.5000e+02,1.0477e-04
8.6000e+02,1.0457e-04
8.7000e+02,1.0454e-04
8.8000e+02,1.0467e-04
8.9000e+02,1.0491e-04
9.0000e+02,1.0519e-04
9.1000e+02,1.0540e-04
9.2000e+02,1.0543e-04
9.3000e+02,1.0518e-04
9.4000e+02,1.0466e-04
9.5000e+02,1.0389e-04
9.6000e+02,1.0296e-04
9.7000e+02,1.0198e-04
9.8000e+02,1.0108e-04
9.9000e+02,1.0043e-04
1.0000e+03,1.0015e-04
1.0100e+03,1.0027e-04
1.0200e+03,1.0073e-04
1.0300e+03,1.0131e-04
1.0400e+03,1.0178e-04
1.0500e+03,1.0198e-04
1.0600e+03,1.0182e-04
1.0700e+03,1.0127e-04
1.0800e+03,1.0035e-04
1.0900e+03,9.9106e-05
1.1000e+03,9.7662e-05
1.1100e+03,9.6213e-05
1.1200e+03,9.4970e-05
1.1300e+03,9.4054e-05
1.1400e+03,9.3487e-05
1.1500e+03,9.3230e-05
1.1600e+03,9.3208e-05
1.1700e+03,9.3319e-05
1.1800e+03,9.3464e-05
1.1900e+03,9.3577e-05
1.2000e+03,9.3629e-05
1.2100e+03,9.3602e-05
1.2200e+03,9.3482e-05
1.2300e+03,9.3260e-05
1.2400e+03,9.2930e-05
1.2500e+03,9.2502e-05
1.2600e+03,9.2011e-05
1.2700e+03,9.1518e-05
1.2800e+03,9.1098e-05
1.2900e+03,9.0801e-05
1.3000e+03,9.0638e-05
1.3100e+03,9.0594e-05
1.3200e+03,9.0640e-05
1.3300e+03,9.0742e-05
1.3400e+03,9.0848e-05
1.3500e+03,9.0898e-05
1.3600e+03,9.0845e-05
1.3700e+03,9.0697e-05
1.3800e+03,9.0504e-05
1.3900e+03,9.0326e-05
1.4000e+03,9.0195e-05
1.4100e+03,9.0116e-05
1.4200e+03,9.0070e-05
1.4300e+03,9.0035e-05
1.4400e+03,9.0001e-05
1.4500e+03,8.9966e-05
1.4600e+03,8.9927e-05
1.4700e+03,8.9883e-05
1.4800e+03,8.9830e-05
1.4900e+03,8.9772e-05
1.5000e+03,8.9713e-05
1.5100e+03,8.9658e-05
1.5200e+03,8.9610e-05
1.5300e+03,8.9574e-05
1.5400e+03,8.9550e-05
1.5500e+03,8.9535e-05
1.5600e+03,8.9525e-05
1.5700e+03,8.9515e-05
1.5800e+03,8.9503e-05
1.5900e+03,8.9493e-05
1.6000e+03,8.9489e-05
1.6100e+03,8.9493e-05
1.6200e+03,8.9497e-05
1.6300e+03,8.9483e-05
1.6400e+03,8.9433e-05
1.6500e+03,8.9339e-05
1.6600e+03,8.9213e-05
1.6700e+03,8.9084e-05
1.6800e+03,8.8985e-05
1.6900e+03,8.8934e-05
1.7000e+03,8.8918e-05
1.7100e+03,8.8904e-05
1.7200e+03,8.8868e-05
1.7300e+03,8.8807e-05
1.7400e+03,8.8734e-05
1.7500e+03,8.8674e-05
1.7600e+03,8.8656e-05
1.7700e+03,8.8700e-05
1.7800e+03,8.8804e-05
1.7900e+03,8.8933e-05
1.8000e+03,8.9029e-05
1.8100e+03,8.9024e-05
1.8200e+03,8.8862e-05
1.8300e+03,8.8513e-05
1.8400e+03,8.7993e-05
1.8500e+03,8.7363e-05
1.8600e+03,8.6716e-05
1.8700e+03,8.6140e-05
1.8800e+03,8.5681e-05
1.8900e+03,8.5342e-05
1.9000e+03,8.5094e-05
1.9100e+03,8.4899e-05
1.9200e+03,8.4720e-05
1.9300e+03,8.4540e-05
1.9400e+03,8.4359e-05
1.9500e+03,8.4188e-05
1.9600e+03,8.4040e-05
1.9700e+03,8.3929e-05
1.9800e+03,8.3876e-05
1.9900e+03,8.3893e-05
2.0000e+03,8.3962e-05
2.0100e+03,8.4040e-05
2.0200e+03,8.4082e-05
2.0300e+03,8.4069e-05
2.0400e+03,8.4007e-05
2.0500e+03,8.3900e-05
2.0600e+03,8.3750e-05
2.0700e+03,8.3566e-05
2.0800e+03,8.3369e-05
2.0900e+03,8.3170e-05
2.1000e+03,8.2977e-05
2.1100e+03,8.2807e-05
2.1200e+03,8.2666e-05
2.1300e+03,8.2522e-05
2.1400e+03,8.2319e-05
2.1500e+03,8.2019e-05
2.1600e+03,8.1616e-05
2.1700e+03,8.1112e-05
2.1800e+03,8.0504e-05
2.1900e+03,7.9823e-05
2.2000e+03,7.9162e-05
2.2100e+03,7.8638e-05
2.2200e+03,7.8311e-05
2.2300e+03,7.8152e-05
2.2400e+03,7.8062e-05
2.2500e+03,7.7937e-05
2.2600e+03,7.7723e-05
2.2700e+03,7.7446e-05
2.2800e+03,7.7192e-05
2.2900e+03,7.7020e-05
2.3000e+03,7.6912e-05
2.3100e+03,7.6805e-05
2.3200e+03,7.6666e-05
2.3300e+03,7.6499e-05
2.3400e+03,7.6316e-05
2.3500e+03,7.6119e-05
2.3600e+03,7.5913e-05
2.3700e+03,7.5705e-05
2.3800e+03,7.5501e-05
2.3900e+03,7.5305e-05
2.4000e+03,7.5127e-05
2.4100e+03,7.4978e-05
2.4200e+03,7.4869e-05
2.4300e+03,7.4809e-05
2.4400e+03,7.4815e-05
2.4500e+03,7.4894e-05
2.4600e+03,7.5020e-05
2.4700e+03,7.5138e-05
2.4800e+03,7.5195e-05
2.4900e+03,7.5178e-05
2.5000e+03,7.5113e-05
2.5100e+03,7.5037e-05
2.5200e+03,7.4969e-05
2.5300e+03,7.4912e-05
2.5400e+03,7.4858e-05
2.5500e+03,7.4798e-05
2.5600e+03,7.4722e-05
2.5700e+03,7.4622e-05
2.5800e+03,7.4496e-05
2.5900e+03,7.4354e-05
2.6000e+03,7.4216e-05
2.6100e+03,7.4098e-05
2.6200e+03,7.4005e-05
2.6300e+03,7.3934e-05
2.6400e+03,7.3878e-05
2.6500e+03,7.3829e-05
2.6600e+03,7.3776e-05
2.6700e+03,7.3704e-05
2.6800e+03,7.3607e-05
2.6900e+03,7.3485e-05
2.7000e+03,7.3339e-05
2.7100e+03,7.3157e-05
2.7200e+03,7.2927e-05
2.7300e+03,7.2647e-05
2.7400e+03,7.2343e-05
2.7500e+03,7.2063e-05
2.7600e+03,7.1848e-05
2.7700e+03,7.1717e-05
2.7800e+03,7.1662e-05
2.7900e+03,7.1648e-05
2.8000e+03,7.1626e-05
2.8100e+03,7.1556e-05
2.8200e+03,7.1425e-05
2.8300e+03,7.1242e-05
2.8400e+03,7.1022e-05
2.8500e+03,7.0780e-05
2.8600e+03,7.0530e-05
2.8700e+03,7.0286e-05
2.8800e+03,7.0057e-05
2.8900e+03,6.9835e-05
2.9000e+03,6.9593e-05
2.9100e+03,6.9308e-05
2.9200e+03,6.8989e-05
2.9300e+03,6.8684e-05
2.9400e+03,6.8461e-05
2.9500e+03,6.8355e-05
2.9600e+03,6.8348e-05
2.9700e+03,6.8396e-05
2.9800e+03,6.8439e-05
2.9900e+03,6.8392e-05
3.0000e+03,6.8155e-05
3.0100e+03,6.7686e-05
3.0200e+03,6.7063e-05
3.0300e+03,6.6455e-05
3.0400e+03,6.6010e-05
3.0500e+03,6.5818e-05
3.0600e+03,6.5925e-05
3.0700e+03,6.6351e-05
3.0800e+03,6.7036e-05
3.0900e+03,6.7797e-05
3.1000e+03,6.8382e-05
3.1100e+03,6.8598e-05
3.1200e+03,6.8399e-05
3.1300e+03,6.7887e-05
3.1400e+03,6.7240e-05
3.1500e+03,6.6615e-05
3.1600e+03,6.6104e-05
3.1700e+03,6.5746e-05
3.1800e+03,6.5562e-05
3.1900e+03,6.5552e-05
3.2000e+03,6.5675e-05
3.2100e+03,6.5858e-05
3.2200e+03,6.6034e-05
3.2300e+03,6.6176e-05
3.2400e+03,6.6286e-05
3.2500e+03,6.6360e-05
3.2600e+03,6.6381e-05
3.2700e+03,6.6330e-05
3.2800e+03,6.6211e-05
3.2900e+03,6.6045e-05
3.3000e+03,6.5853e-05
3.3100e+03,6.5650e-05
3.3200e+03,6.5451e-05
3.3300e+03,6.5277e-05
3.3400e+03,6.5136e-05
3.3500e+03,6.5030e-05
3.3600e+03,6.4962e-05
3.3700e+03,6.4934e-05
3.3800e+03,6.4946e-05
3.3900e+03,6.4986e-05
3.4000e+03,6.5032e-05
3.4100e+03,6.5058e-05
3.4200e+03,6.5046e-05
3.4300e+03,6.4990e-05
3.4400e+03,6.4894e-05
3.4500e+03,6.4773e-05
3.4600e+03,6.4646e-05
3.4700e+03,6.4520e-05
3.4800e+03,6.4373e-05
3.4900e+03,6.4163e-05
3.5000e+03,6.3859e-05
3.5100e+03,6.3477e-05
3.5200e+03,6.3080e-05
3.5300e+03,6.2732e-05
3.5400e+03,6.2472e-05
3.5500e+03,6.2304e-05
3.5600e+03,6.2222e-05
3.5700e+03,6.2208e-05
3.5800e+03,6.2238e-05
3.5900e+03,6.2291e-05
3.6000e+03,6.2354e-05
3.6100e+03,6.2414e-05
3.6200e+03,6.2460e-05
3.6300e+03,6.2480e-05
3.6400e+03,6.2466e-05
3.6500e+03,6.2415e-05
3.6600e+03,6.2331e-05
3.6700e+03,6.2225e-05
3.6800e+03,6.2107e-05
3.6900e+03,6.1988e-05
3.7000e+03,6.1879e-05
3.7100e+03,6.1790e-05
3.7200e+03,6.1723e-05
3.7300e+03,6.1672e-05
3.7400e+03,6.1632e-05
3.7500e+03,6.1600e-05
3.7600e+03,6.1586e-05
3.7700e+03,6.1611e-05
3.7800e+03,6.1686e-05
3.7900e+03,6.1794e-05
3.8000e+03,6.1902e-05
3.8100e+03,6.1972e-05
3.8200e+03,6.1980e-05
3.8300e+03,6.1916e-05
3.8400e+03,6.1785e-05
3.8500e+03,6.1609e-05
3.8600e+03,6.1424e-05
3.8700e+03,6.1270e-05
3.8800e+03,6.1168e-05
3.8900e+03,6.1104e-05
3.9000e+03,6.1020e-05
3.9100e+03,6.0835e-05
3.9200e+03,6.0493e-05
3.9300e+03,6.0007e-05
3.9400e+03,5.9459e-05
3.9500e+03,5.8974e-05
3.9600e+03,5.8676e-05
3.9700e+03,5.8664e-05
3.9800e+03,5.8991e-05
3.9900e+03,5.9632e-05
4.0000e+03,6.0453e-05
4.0100e+03,6.1244e-05
4.0200e+03,6.1799e-05
4.0300e+03,6.1994e-05
4.0400e+03,6.1803e-05
4.0500e+03,6.1284e-05
4.0600e+03,6.0548e-05
4.0700e+03,5.9732e-05
4.0800e+03,5.8974e-05
4.0900e+03,5.8385e-05
4.1000e+03,5.8038e-05
4.1100e+03,5.7943e-05
4.1200e+03,5.8018e-05
4.1300e+03,5.8085e-05
4.1400e+03,5.7943e-05
4.1500e+03,5.7480e-05
4.1600e+03,5.6726e-05
4.1700e+03,5.5796e-05
4.1800e+03,5.4824e-05
4.1900e+03,5.3912e-05
4.2000e+03,5.3120e-05
4.2100e+03,5.2469e-05
4.2200e+03,5.1956e-05
4.2300e+03,5.1561e-05
4.2400e+03,5.1258e-05
4.2500e+03,5.1018e-05
4.2600e+03,5.0817e-05
4.2700e+03,5.0636e-05
4.2800e+03,5.0459e-05
4.2900e+03,5.0272e-05
4.3000e+03,5.0065e-05
4.3100e+03,4.9840e-05
4.3200e+03,4.9607e-05
4.3300e+03,4.9374e-05
4.3400e+03,4.9146e-05
4.3500e+03,4.8930e-05
4.3600e+03,4.8740e-05
4.3700e+03,4.8598e-05
4.3800e+03,4.8518e-05
4.3900e+03,4.8488e-05
4.4000e+03,4.8470e-05
4.4100e+03,4.8413e-05
4.4200e+03,4.8276e-05
4.4300e+03,4.8044e-05
4.4400e+03,4.7724e-05
4.4500e+03,4.7338e-05
4.4600e+03,4.6923e-05
4.4700e+03,4.6531e-05
4.4800e+03,4.6219e-05
4.4900e+03,4.6036e-05
4.5000e+03,4.6005e-05
4.5100e+03,4.6116e-05
4.5200e+03,4.6341e-05
4.5300e+03,4.6646e-05
4.5400e+03,4.6994e-05
4.5500e+03,4.7343e-05
4.5600e+03,4.7652e-05
4.5700e+03,4.7889e-05
4.5800e+03,4.8037e-05
4.5900e+03,4.8098e-05
4.6000e+03,4.8090e-05
4.6100e+03,4.8038e-05
4.6200e+03,4.7975e-05
4.6300e+03,4.7926e-05
4.6400e+03,4.7890e-05
4.6500e+03,4.7844e-05
4.6600e+03,4.7770e-05
4.6700e+03,4.7666e-05
4.6800e+03,4.7538e-05
4.6900e+03,4.7385e-05
4.7000e+03,4.7196e-05
4.7100e+03,4.6984e-05
4.7200e+03,4.6786e-05
4.7300e+03,4.6647e-05
4.7400e+03,4.6583e-05
4.7500e+03,4.6584e-05
4.7600e+03,4.6631e-05
4.7700e+03,4.6709e-05
4.7800e+03,4.6813e-05
4.7900e+03,4.6936e-05
4.8000e+03,4.7073e-05
4.8100e+03,4.7211e-05
4.8200e+03,4.7337e-05
4.8300e+03,4.7434e-05
4.8400e+03,4.7489e-05
4.8500e+03,4.7503e-05
4.8600e+03,4.7496e-05
4.8700e+03,4.7499e-05
4.8800e+03,4.7542e-05
4.8900e+03,4.7649e-05
4.9000e+03,4.7818e-05
4.9100e+03,4.8009e-05
4.9200e+03,4.8152e-05
4.9300e+03,4.8198e-05
4.9400e+03,4.8147e-05
4.9500e+03,4.8047e-05
4.9600e+03,4.7954e-05
4.9700e+03,4.7910e-05
4.9800e+03,4.7969e-05
4.9900e+03,4.8191e-05
5.0000e+03,4.8605e-05
5.0100e+03,4.9175e-05
5.0200e+03,4.9810e-05
5.0300e+03,5.0409e-05
5.0400e+03,5.0878e-05
5.0500e+03,5.1140e-05
5.0600e+03,5.1144e-05
5.0700e+03,5.0871e-05
5.0800e+03,5.0328e-05
5.0900e+03,4.9573e-05
5.1000e+03,4.8712e-05
5.1100e+03,4.7853e-05
5.1200e+03,4.7033e-05
5.1300e+03,4.6196e-05
5.1400e+03,4.5249e-05
5.1500e+03,4.4164e-05
5.1600e+03,4.3013e-05
5.1700e+03,4.1908e-05
5.1800e+03,4.0940e-05
5.1900e+03,4.0143e-05
5.2000e+03,3.9515e-05
5.2100e+03,3.9047e-05
5.2200e+03,3.8747e-05
5.2300e+03,3.8619e-05
5.2400e+03,3.8637e-05
5.2500e+03,3.8750e-05
5.2600e+03,3.8897e-05
5.2700e+03,3.9047e-05
5.2800e+03,3.9208e-05
5.2900e+03,3.9393e-05
5.3000e+03,3.9574e-05
5.3100e+03,3.9687e-05
5.3200e+03,3.9663e-05
5.3300e+03,3.9481e-05
5.3400e+03,3.9192e-05
5.3500e+03,3.8890e-05
5.3600e+03,3.8657e-05
5.3700e+03,3.8524e-05
5.3800e+03,3.8501e-05
5.3900e+03,3.8601e-05
5.4000e+03,3.8836e-05
5.4100e+03,3.9180e-05
5.4200e+03,3.9583e-05
5.4300e+03,3.9993e-05
5.4400e+03,4.0362e-05
5.4500e+03,4.0646e-05
5.4600e+03,4.0816e-05
5.4700e+03,4.0862e-05
5.4800e+03,4.0807e-05
5.4900e+03,4.0691e-05
5.5000e+03,4.0553e-05
5.5100e+03,4.0419e-05
5.5200e+03,4.0293e-05
5.5300e+03,4.0162e-05
5.5400e+03,4.0012e-05
5.5500e+03,3.9837e-05
5.5600e+03,3.9630e-05
5.5700e+03,3.9388e-05
5.5800e+03,3.9113e-05
5.5900e+03,3.8805e-05
5.6000e+03,3.8464e-05
5.6100e+03,3.8096e-05
5.6200e+03,3.7722e-05
5.6300e+03,3.7374e-05
5.6400e+03,3.7080e-05
5.6500e+03,3.6857e-05
5.6600e+03,3.6704e-05
5.6700e+03,3.6620e-05
5.6800e+03,3.6606e-05
5.6900e+03,3.6669e-05
5.7000e+03,3.6809e-05
5.7100e+03,3.6999e-05
5.7200e+03,3.7195e-05
5.7300e+03,3.7356e-05
5.7400e+03,3.7473e-05
5.7500e+03,3.7567e-05
5.7600e+03,3.7664e-05
5.7700e+03,3.7770e-05
5.7800e+03,3.7875e-05
5.7900e+03,3.7967e-05
5.8000e+03,3.8059e-05
5.8100e+03,3.8185e-05
5.8200e+03,3.8369e-05
5.8300e+03,3.8601e-05
5.8400e+03,3.8843e-05
5.8500e+03,3.9049e-05
5.8600e+03,3.9190e-05
5.8700e+03,3.9258e-05
5.8800e+03,3.9268e-05
5.8900e+03,3.9246e-05
5.9000e+03,3.9206e-05
5.9100e+03,3.9148e-05
5.9200e+03,3.9063e-05
5.9300e+03,3.8945e-05
5.9400e+03,3.8793e-05
5.9500e+03,3.8618e-05
5.9600e+03,3.8437e-05
5.9700e+03,3.8283e-05
5.9800e+03,3.8190e-05
5.9900e+03,3.8180e-05
6.0000e+03,3.8262e-05
6.0100e+03,3.8435e-05
6.0200e+03,3.8686e-05
6.0300e+03,3.8995e-05
6.0400e+03,3.9337e-05
6.0500e+03,3.9698e-05
6.0600e+03,4.0072e-05
6.0700e+03,4.0445e-05
6.0800e+03,4.0778e-05
6.0900e+03,4.1016e-05
6.1000e+03,4.1125e-05
6.1100e+03,4.1130e-05
6.1200e+03,4.1092e-05
6.1300e+03,4.1073e-05
6.1400e+03,4.1102e-05
6.1500e+03,4.1161e-05
6.1600e+03,4.1197e-05
6.1700e+03,4.1181e-05
6.1800e+03,4.1120e-05
6.1900e+03,4.1026e-05
6.2000e+03,4.0898e-05
6.2100e+03,4.0735e-05
6.2200e+03,4.0571e-05
6.2300e+03,4.0478e-05
6.2400e+03,4.0536e-05
6.2500e+03,4.0782e-05
6.2600e+03,4.1200e-05
6.2700e+03,4.1739e-05
6.2800e+03,4.2321e-05
6.2900e+03,4.2864e-05
6.3000e+03,4.3299e-05
6.3100e+03,4.3606e-05
6.3200e+03,4.3837e-05
6.3300e+03,4.4084e-05
6.3400e+03,4.4408e-05
6.3500e+03,4.4807e-05
6.3600e+03,4.5235e-05
6.3700e+03,4.5636e-05
6.3800e+03,4.5971e-05
6.3900e+03,4.6218e-05
6.4000e+03,4.6375e-05
6.4100e+03,4.6449e-05
6.4200e+03,4.6461e-05
6.4300e+03,4.6437e-05
6.4400e+03,4.6408e-05
6.4500e+03,4.6402e-05
6.4600e+03,4.6433e-05
6.4700e+03,4.6493e-05
6.4800e+03,4.6570e-05
6.4900e+03,4.6685e-05
6.5000e+03,4.6900e-05
6.5100e+03,4.7267e-05
6.5200e+03,4.7774e-05
6.5300e+03,4.8366e-05
6.5400e+03,4.8981e-05
6.5500e+03,4.9563e-05
6.5600e+03,5.0066e-05
6.5700e+03,5.0444e-05
6.5800e+03,5.0651e-05
6.5900e+03,5.0672e-05
6.6000e+03,5.0525e-05
6.6100e+03,5.0261e-05
6.6200e+03,4.9947e-05
6.6300e+03,4.9637e-05
6.6400e+03,4.9360e-05
6.6500e+03,4.9116e-05
6.6600e+03,4.8892e-05
6.6700e+03,4.8688e-05
6.6800e+03,4.8512e-05
6.6900e+03,4.8372e-05
6.7000e+03,4.8276e-05
6.7100e+03,4.8237e-05
6.7200e+03,4.8252e-05
6.7300e+03,4.8297e-05
6.7400e+03,4.8341e-05
6.7500e+03,4.8369e-05
6.7600e+03,4.8379e-05
6.7700e+03,4.8366e-05
6.7800e+03,4.8305e-05
6.7900e+03,4.8171e-05
6.8000e+03,4.7957e-05
6.8100e+03,4.7673e-05
6.8200e+03,4.7342e-05
6.8300e+03,4.6994e-05
6.8400e+03,4.6674e-05
6.8500e+03,4.6435e-05
6.8600e+03,4.6312e-05
6.8700e+03,4.6297e-05
6.8800e+03,4.6331e-05
6.8900e+03,4.6317e-05
6.9000e+03,4.6170e-05
6.9100e+03,4.5854e-05
6.9200e+03,4.5398e-05
6.9300e+03,4.4879e-05
6.9400e+03,4.4379e-05
6.9500e+03,4.3946e-05
6.9600e+03,4.3591e-05
6.9700e+03,4.3308e-05
6.9800e+03,4.3082e-05
6.9900e+03,4.2894e-05
7.0000e+03,4.2731e-05
7.0100e+03,4.2593e-05
7.0200e+03,4.2481e-05
7.0300e+03,4.2400e-05
7.0400e+03,4.2361e-05
7.0500e+03,4.2377e-05
7.0600e+03,4.2454e-05
7.0700e+03,4.2569e-05
7.0800e+03,4.2683e-05
7.0900e+03,4.2751e-05
7.1000e+03,4.2727e-05
7.1100e+03,4.2576e-05
7.1200e+03,4.2272e-05
7.1300e+03,4.1812e-05
7.1400e+03,4.1216e-05
7.1500e+03,4.0540e-05
7.1600e+03,3.9875e-05
7.1700e+03,3.9319e-05
7.1800e+03,3.8949e-05
7.1900e+03,3.8806e-05
7.2000e+03,3.8886e-05
7.2100e+03,3.9136e-05
7.2200e+03,3.9483e-05
7.2300e+03,3.9869e-05
7.2400e+03,4.0253e-05
7.2500e+03,4.0600e-05
7.2600e+03,4.0892e-05
7.2700e+03,4.1147e-05
7.2800e+03,4.1403e-05
7.2900e+03,4.1681e-05
7.3000e+03,4.1959e-05
7.3100e+03,4.2186e-05
7.3200e+03,4.2313e-05
7.3300e+03,4.2314e-05
7.3400e+03,4.2205e-05
7.3500e+03,4.2033e-05
7.3600e+03,4.1859e-05
7.3700e+03,4.1730e-05
7.3800e+03,4.1668e-05
7.3900e+03,4.1669e-05
7.4000e+03,4.1723e-05
7.4100e+03,4.1815e-05
7.4200e+03,4.1923e-05
7.4300e+03,4.2011e-05
7.4400e+03,4.2026e-05
7.4500e+03,4.1922e-05
7.4600e+03,4.1696e-05
7.4700e+03,4.1388e-05
7.4800e+03,4.1036e-05
7.4900e+03,4.0642e-05
7.5000e+03,4.0172e-05
7.5100e+03,3.9591e-05
7.5200e+03,3.8877e-05
7.5300e+03,3.8036e-05
7.5400e+03,3.7145e-05
7.5500e+03,3.6375e-05
7.5600e+03,3.5930e-05
7.5700e+03,3.5929e-05
7.5800e+03,3.6341e-05
7.5900e+03,3.6990e-05
7.6000e+03,3.7650e-05
7.6100e+03,3.8161e-05
7.6200e+03,3.8465e-05
7.6300e+03,3.8556e-05
7.6400e+03,3.8433e-05
7.6500e+03,3.8109e-05
7.6600e+03,3.7631e-05
7.6700e+03,3.7057e-05
7.6800e+03,3.6421e-05
7.6900e+03,3.5744e-05
7.7000e+03,3.5077e-05
7.7100e+03,3.4493e-05
7.7200e+03,3.4070e-05
7.7300e+03,3.3846e-05
7.7400e+03,3.3809e-05
7.7500e+03,3.3907e-05
7.7600e+03,3.4076e-05
7.7700e+03,3.4262e-05
7.7800e+03,3.4425e-05
7.7900e+03,3.4543e-05
7.8000e+03,3.4613e-05
7.8100e+03,3.4648e-05
7.8200e+03,3.4665e-05
7.8300e+03,3.4670e-05
7.8400e+03,3.4663e-05
7.8500e+03,3.4637e-05
7.8600e+03,3.4596e-05
7.8700e+03,3.4554e-05
7.8800e+03,3.4528e-05
7.8900e+03,3.4522e-05
7.9000e+03,3.4527e-05
7.9100e+03,3.4524e-05
7.9200e+03,3.4496e-05
7.9300e+03,3.4439e-05
7.9400e+03,3.4344e-05
7.9500e+03,3.4205e-05
7.9600e+03,3.4020e-05
7.9700e+03,3.3807e-05
7.9800e+03,3.3592e-05
7.9900e+03,3.3398e-05
8.0000e+03,3.3244e-05
8.0100e+03,3.3144e-05
8.0200e+03,3.3110e-05
8.0300e+03,3.3137e-05
8.0400e+03,3.3210e-05
8.0500e+03,3.3311e-05
8.0600e+03,3.3435e-05
8.0700e+03,3.3575e-05
8.0800e+03,3.3706e-05
8.0900e+03,3.3779e-05
8.1000e+03,3.3736e-05
8.1100e+03,3.3522e-05
8.1200e+03,3.3106e-05
8.1300e+03,3.2497e-05
8.1400e+03,3.1753e-05
8.1500e+03,3.0964e-05
8.1600e+03,3.0239e-05
8.1700e+03,2.9694e-05
8.1800e+03,2.9426e-05
8.1900e+03,2.9469e-05
8.2000e+03,2.9774e-05
8.2100e+03,3.0240e-05
8.2200e+03,3.0755e-05
8.2300e+03,3.1243e-05
8.2400e+03,3.1675e-05
8.2500e+03,3.2052e-05
8.2600e+03,3.2376e-05
8.2700e+03,3.2647e-05
8.2800e+03,3.2854e-05
8.2900e+03,3.2970e-05
8.3000e+03,3.2973e-05
8.3100e+03,3.2857e-05
8.3200e+03,3.2643e-05
8.3300e+03,3.2372e-05
8.3400e+03,3.2094e-05
8.3500e+03,3.1854e-05
8.3600e+03,3.1677e-05
8.3700e+03,3.1569e-05
8.3800e+03,3.1519e-05
8.3900e+03,3.1515e-05
8.4000e+03,3.1542e-05
8.4100e+03,3.1585e-05
8.4200e+03,3.1629e-05
8.4300e+03,3.1647e-05
8.4400e+03,3.1616e-05
8.4500e+03,3.1522e-05
8.4600e+03,3.1362e-05
8.4700e+03,3.1141e-05
8.4800e+03,3.0877e-05
8.4900e+03,3.0605e-05
8.5000e+03,3.0368e-05
8.5100e+03,3.0203e-05
8.5200e+03,3.0128e-05
8.5300e+03,3.0147e-05
8.5400e+03,3.0238e-05
8.5500e+03,3.0366e-05
8.5600e+03,3.0493e-05
8.5700e+03,3.0593e-05
8.5800e+03,3.0666e-05
8.5900e+03,3.0739e-05
8.6000e+03,3.0842e-05
8.6100e+03,3.0983e-05
8.6200e+03,3.1131e-05
8.6300e+03,3.1260e-05
8.6400e+03,3.1352e-05
8.6500e+03,3.1376e-05
8.6600e+03,3.1281e-05
8.6700e+03,3.1009e-05
8.6800e+03,3.0524e-05
8.6900e+03,2.9826e-05
8.7000e+03,2.8973e-05
8.7100e+03,2.8074e-05
8.7200e+03,2.7262e-05
8.7300e+03,2.6663e-05
8.7400e+03,2.6363e-05
8.7500e+03,2.6376e-05
8.7600e+03,2.6626e-05
8.7700e+03,2.7001e-05
8.7800e+03,2.7429e-05
8.7900e+03,2.7895e-05
8.8000e+03,2.8385e-05
8.8100e+03,2.8848e-05
8.8200e+03,2.9216e-05
8.8300e+03,2.9446e-05
8.8400e+03,2.9546e-05
8.8500e+03,2.9552e-05
8.8600e+03,2.9508e-05
8.8700e+03,2.9454e-05
8.8800e+03,2.9416e-05
8.8900e+03,2.9404e-05
8.9000e+03,2.9410e-05
8.9100e+03,2.9424e-05
8.9200e+03,2.9438e-05
8.9300e+03,2.9444e-05
8.9400e+03,2.9433e-05
8.9500e+03,2.9398e-05
8.9600e+03,2.9342e-05
8.9700e+03,2.9289e-05
8.9800e+03,2.9274e-05
8.9900e+03,2.9328e-05
9.0000e+03,2.9459e-05
9.0100e+03,2.9646e-05
9.0200e+03,2.9855e-05
9.0300e+03,3.0069e-05
9.0400e+03,3.0287e-05
9.0500e+03,3.0523e-05
9.0600e+03,3.0793e-05
9.0700e+03,3.1116e-05
