# Time , Side-Flux
0.0000e+00,0.0000e+00
1.0000e+01,2.8564e-08
2.0000e+01,5.6877e-08
3.0000e+01,8.4694e-08
4.0000e+01,1.1179e-07
5.0000e+01,1.3795e-07
6.0000e+01,1.6301e-07
7.0000e+01,1.8681e-07
8.0000e+01,2.0925e-07
9.0000e+01,2.3024e-07
1.0000e+02,2.4975e-07
1.1000e+02,2.6776e-07
1.2000e+02,2.8428e-07
1.3000e+02,2.9935e-07
1.4000e+02,3.1304e-07
1.5000e+02,3.2542e-07
1.6000e+02,3.3657e-07
1.7000e+02,3.4658e-07
1.8000e+02,3.5556e-07
1.9000e+02,3.6359e-07
2.0000e+02,3.7078e-07
2.1000e+02,3.7721e-07
2.2000e+02,3.8296e-07
2.3000e+02,3.8812e-07
2.4000e+02,3.9275e-07
2.5000e+02,3.9691e-07
2.6000e+02,4.0067e-07
2.7000e+02,4.0406e-07
2.8000e+02,4.0714e-07
2.9000e+02,4.0994e-07
3.0000e+02,4.1250e-07
3.1000e+02,4.1483e-07
3.2000e+02,4.1696e-07
3.3000e+02,4.1891e-07
3.4000e+02,4.2071e-07
3.5000e+02,4.2236e-07
3.6000e+02,4.2387e-07
3.7000e+02,4.2526e-07
3.8000e+02,4.2654e-07
3.9000e+02,4.2771e-07
4.0000e+02,4.2878e-07
4.1000e+02,4.2976e-07
4.2000e+02,4.3066e-07
4.3000e+02,4.3148e-07
4.4000e+02,4.3223e-07
4.5000e+02,4.3291e-07
4.6000e+02,4.3354e-07
4.7000e+02,4.3410e-07
4.8000e+02,4.3462e-07
4.9000e+02,4.3509e-07
5.0000e+02,4.3552e-07
5.1000e+02,4.3591e-07
5.2000e+02,4.3628e-07
5.3000e+02,4.3661e-07
5.4000e+02,4.3693e-07
5.5000e+02,4.3722e-07
5.6000e+02,4.3750e-07
5.7000e+02,4.3777e-07
5.8000e+02,4.3803e-07
5.9000e+02,4.3828e-07
6.0000e+02,4.3853e-07
6.1000e+02,4.3878e-07
6.2000e+02,4.3903e-07
6.3000e+02,4.3928e-07
6.4000e+02,4.3953e-07
6.5000e+02,4.3978e-07
6.6000e+02,4.4003e-07
6.7000e+02,4.4028e-07
6.8000e+02,4.4053e-07
6.9000e+02,4.4078e-07
7.0000e+02,4.4103e-07
7.1000e+02,4.4127e-07
7.2000e+02,4.4152e-07
7.3000e+02,4.4176e-07
7.4000e+02,4.4200e-07
7.5000e+02,4.4225e-07
7.6000e+02,4.4249e-07
7.7000e+02,4.4274e-07
7.8000e+02,4.4300e-07
7.9000e+02,4.4326e-07
8.0000e+02,4.4352e-07
8.1000e+02,4.4379e-07
8.2000e+02,4.4407e-07
8.3000e+02,4.4434e-07
8.4000e+02,4.4461e-07
8.5000e+02,4.4487e-07
8.6000e+02,4.4511e-07
8.7000e+02,4.4533e-07
8.8000e+02,4.4553e-07
8.9000e+02,4.4568e-07
9.0000e+02,4.4579e-07
9.1000e+02,4.4584e-07
9.2000e+02,4.4584e-07
9.3000e+02,4.4577e-07
9.4000e+02,4.4562e-07
9.5000e+02,4.4541e-07
9.6000e+02,4.4511e-07
9.7000e+02,4.4475e-07
9.8000e+02,4.4432e-07
9.9000e+02,4.4382e-07
1.0000e+03,4.4326e-07
1.0100e+03,4.4266e-07
1.0200e+03,4.4202e-07
1.0300e+03,4.4136e-07
1.0400e+03,4.4068e-07
1.0500e+03,4.4001e-07
1.0600e+03,4.3935e-07
1.0700e+03,4.3873e-07
1.0800e+03,4.3815e-07
1.0900e+03,4.3764e-07
1.1000e+03,4.3719e-07
1.1100e+03,4.3683e-07
1.1200e+03,4.3655e-07
1.1300e+03,4.3638e-07
1.1400e+03,4.3631e-07
1.1500e+03,4.3634e-07
1.1600e+03,4.3648e-07
1.1700e+03,4.3672e-07
1.1800e+03,4.3706e-07
1.1900e+03,4.3749e-07
1.2000e+03,4.3801e-07
1.2100e+03,4.3859e-07
1.2200e+03,4.3924e-07
1.2300e+03,4.3994e-07
1.2400e+03,4.4068e-07
1.2500e+03,4.4145e-07
1.2600e+03,4.4223e-07
1.2700e+03,4.4302e-07
1.2800e+03,4.4381e-07
1.2900e+03,4.4459e-07
1.3000e+03,4.4536e-07
1.3100e+03,4.4611e-07
1.3200e+03,4.4683e-07
1.3300e+03,4.4753e-07
1.3400e+03,4.4820e-07
1.3500e+03,4.4885e-07
1.3600e+03,4.4946e-07
1.3700e+03,4.5004e-07
1.3800e+03,4.5058e-07
1.3900e+03,4.5109e-07
1.4000e+03,4.5157e-07
1.4100e+03,4.5200e-07
1.4200e+03,4.5240e-07
1.4300e+03,4.5275e-07
1.4400e+03,4.5306e-07
1.4500e+03,4.5332e-07
1.4600e+03,4.5354e-07
1.4700e+03,4.5371e-07
1.4800e+03,4.5383e-07
1.4900e+03,4.5392e-07
1.5000e+03,4.5396e-07
1.5100e+03,4.5396e-07
1.5200e+03,4.5392e-07
1.5300e+03,4.5385e-07
1.5400e+03,4.5375e-07
1.5500e+03,4.5362e-07
1.5600e+03,4.5347e-07
1.5700e+03,4.5330e-07
1.5800e+03,4.5311e-07
1.5900e+03,4.5290e-07
1.6000e+03,4.5268e-07
1.6100e+03,4.5245e-07
1.6200e+03,4.5220e-07
1.6300e+03,4.5194e-07
1.6400e+03,4.5167e-07
1.6500e+03,4.5139e-07
1.6600e+03,4.5110e-07
1.6700e+03,4.5080e-07
1.6800e+03,4.5049e-07
1.6900e+03,4.5017e-07
1.7000e+03,4.4985e-07
1.7100e+03,4.4953e-07
1.7200e+03,4.4920e-07
1.7300e+03,4.4888e-07
1.7400e+03,4.4857e-07
1.7500e+03,4.4826e-07
1.7600e+03,4.4797e-07
1.7700e+03,4.4769e-07
1.7800e+03,4.4744e-07
1.7900e+03,4.4721e-07
1.8000e+03,4.4701e-07
1.8100e+03,4.4684e-07
1.8200e+03,4.4671e-07
1.8300e+03,4.4660e-07
1.8400e+03,4.4653e-07
1.8500e+03,4.4650e-07
1.8600e+03,4.4649e-07
1.8700e+03,4.4650e-07
1.8800e+03,4.4654e-07
1.8900e+03,4.4660e-07
1.9000e+03,4.4666e-07
1.9100e+03,4.4671e-07
1.9200e+03,4.4676e-07
1.9300e+03,4.4680e-07
1.9400e+03,4.4680e-07
1.9500e+03,4.4676e-07
1.9600e+03,4.4669e-07
1.9700e+03,4.4655e-07
1.9800e+03,4.4636e-07
1.9900e+03,4.4611e-07
2.0000e+03,4.4578e-07
2.0100e+03,4.4539e-07
2.0200e+03,4.4492e-07
2.0300e+03,4.4438e-07
2.0400e+03,4.4377e-07
2.0500e+03,4.4309e-07
2.0600e+03,4.4235e-07
2.0700e+03,4.4155e-07
2.0800e+03,4.4071e-07
2.0900e+03,4.3982e-07
2.1000e+03,4.3891e-07
2.1100e+03,4.3798e-07
2.1200e+03,4.3705e-07
2.1300e+03,4.3612e-07
2.1400e+03,4.3522e-07
2.1500e+03,4.3436e-07
2.1600e+03,4.3356e-07
2.1700e+03,4.3282e-07
2.1800e+03,4.3218e-07
2.1900e+03,4.3163e-07
2.2000e+03,4.3119e-07
2.2100e+03,4.3087e-07
2.2200e+03,4.3067e-07
2.2300e+03,4.3060e-07
2.2400e+03,4.3066e-07
2.2500e+03,4.3085e-07
2.2600e+03,4.3115e-07
2.2700e+03,4.3155e-07
2.2800e+03,4.3205e-07
2.2900e+03,4.3262e-07
2.3000e+03,4.3325e-07
2.3100e+03,4.3392e-07
2.3200e+03,4.3462e-07
2.3300e+03,4.3532e-07
2.3400e+03,4.3601e-07
2.3500e+03,4.3668e-07
2.3600e+03,4.3732e-07
2.3700e+03,4.3791e-07
2.3800e+03,4.3846e-07
2.3900e+03,4.3895e-07
2.4000e+03,4.3939e-07
2.4100e+03,4.3978e-07
2.4200e+03,4.4012e-07
2.4300e+03,4.4042e-07
2.4400e+03,4.4067e-07
2.4500e+03,4.4089e-07
2.4600e+03,4.4107e-07
2.4700e+03,4.4122e-07
2.4800e+03,4.4134e-07
2.4900e+03,4.4145e-07
2.5000e+03,4.4153e-07
2.5100e+03,4.4159e-07
2.5200e+03,4.4163e-07
2.5300e+03,4.4165e-07
2.5400e+03,4.4166e-07
2.5500e+03,4.4164e-07
2.5600e+03,4.4161e-07
2.5700e+03,4.4156e-07
2.5800e+03,4.4149e-07
2.5900e+03,4.4141e-07
2.6000e+03,4.4132e-07
2.6100e+03,4.4121e-07
2.6200e+03,4.4109e-07
2.6300e+03,4.4096e-07
2.6400e+03,4.4083e-07
2.6500e+03,4.4070e-07
2.6600e+03,4.4056e-07
2.6700e+03,4.4042e-07
2.6800e+03,4.4029e-07
2.6900e+03,4.4016e-07
2.7000e+03,4.4004e-07
2.7100e+03,4.3991e-07
2.7200e+03,4.3979e-07
2.7300e+03,4.3968e-07
2.7400e+03,4.3956e-07
2.7500e+03,4.3945e-07
2.7600e+03,4.3934e-07
2.7700e+03,4.3922e-07
2.7800e+03,4.3910e-07
2.7900e+03,4.3897e-07
2.8000e+03,4.3883e-07
2.8100e+03,4.3868e-07
2.8200e+03,4.3851e-07
2.8300e+03,4.3832e-07
2.8400e+03,4.3811e-07
2.8500e+03,4.3788e-07
2.8600e+03,4.3761e-07
2.8700e+03,4.3731e-07
2.8800e+03,4.3698e-07
2.8900e+03,4.3661e-07
2.9000e+03,4.3620e-07
2.9100e+03,4.3576e-07
2.9200e+03,4.3529e-07
2.9300e+03,4.3480e-07
2.9400e+03,4.3429e-07
2.9500e+03,4.3379e-07
2.9600e+03,4.3329e-07
2.9700e+03,4.3282e-07
2.9800e+03,4.3239e-07
2.9900e+03,4.3202e-07
3.0000e+03,4.3172e-07
3.0100e+03,4.3151e-07
3.0200e+03,4.3140e-07
3.0300e+03,4.3140e-07
3.0400e+03,4.3152e-07
3.0500e+03,4.3177e-07
3.0600e+03,4.3214e-07
3.0700e+03,4.3264e-07
3.0800e+03,4.3326e-07
3.0900e+03,4.3399e-07
3.1000e+03,4.3482e-07
3.1100e+03,4.3572e-07
3.1200e+03,4.3668e-07
3.1300e+03,4.3768e-07
3.1400e+03,4.3870e-07
3.1500e+03,4.3971e-07
3.1600e+03,4.4069e-07
3.1700e+03,4.4162e-07
3.1800e+03,4.4248e-07
3.1900e+03,4.4326e-07
3.2000e+03,4.4394e-07
3.2100e+03,4.4452e-07
3.2200e+03,4.4498e-07
3.2300e+03,4.4533e-07
3.2400e+03,4.4557e-07
3.2500e+03,4.4570e-07
3.2600e+03,4.4574e-07
3.2700e+03,4.4568e-07
3.2800e+03,4.4554e-07
3.2900e+03,4.4534e-07
3.3000e+03,4.4509e-07
3.3100e+03,4.4481e-07
3.3200e+03,4.4449e-07
3.3300e+03,4.4417e-07
3.3400e+03,4.4384e-07
3.3500e+03,4.4352e-07
3.3600e+03,4.4321e-07
3.3700e+03,4.4292e-07
3.3800e+03,4.4265e-07
3.3900e+03,4.4241e-07
3.4000e+03,4.4219e-07
3.4100e+03,4.4199e-07
3.4200e+03,4.4182e-07
3.4300e+03,4.4167e-07
3.4400e+03,4.4154e-07
3.4500e+03,4.4142e-07
3.4600e+03,4.4132e-07
3.4700e+03,4.4124e-07
3.4800e+03,4.4116e-07
3.4900e+03,4.4110e-07
3.5000e+03,4.4105e-07
3.5100e+03,4.4102e-07
3.5200e+03,4.4100e-07
3.5300e+03,4.4100e-07
3.5400e+03,4.4101e-07
3.5500e+03,4.4105e-07
3.5600e+03,4.4110e-07
3.5700e+03,4.4118e-07
3.5800e+03,4.4128e-07
3.5900e+03,4.4140e-07
3.6000e+03,4.4154e-07
3.6100e+03,4.4169e-07
3.6200e+03,4.4187e-07
3.6300e+03,4.4205e-07
3.6400e+03,4.4224e-07
3.6500e+03,4.4243e-07
3.6600e+03,4.4261e-07
3.6700e+03,4.4280e-07
3.6800e+03,4.4296e-07
3.6900e+03,4.4312e-07
3.7000e+03,4.4326e-07
3.7100e+03,4.4337e-07
3.7200e+03,4.4347e-07
3.7300e+03,4.4354e-07
3.7400e+03,4.4359e-07
3.7500e+03,4.4362e-07
3.7600e+03,4.4363e-07
3.7700e+03,4.4361e-07
3.7800e+03,4.4358e-07
3.7900e+03,4.4353e-07
3.8000e+03,4.4346e-07
3.8100e+03,4.4337e-07
3.8200e+03,4.4326e-07
3.8300e+03,4.4313e-07
3.8400e+03,4.4299e-07
3.8500e+03,4.4283e-07
3.8600e+03,4.4265e-07
3.8700e+03,4.4246e-07
3.8800e+03,4.4225e-07
3.8900e+03,4.4203e-07
3.9000e+03,4.4180e-07
3.9100e+03,4.4157e-07
3.9200e+03,4.4133e-07
3.9300e+03,4.4109e-07
3.9400e+03,4.4086e-07
3.9500e+03,4.4063e-07
3.9600e+03,4.4040e-07
3.9700e+03,4.4019e-07
3.9800e+03,4.4000e-07
3.9900e+03,4.3981e-07
4.0000e+03,4.3965e-07
4.0100e+03,4.3950e-07
4.0200e+03,4.3936e-07
4.0300e+03,4.3925e-07
4.0400e+03,4.3915e-07
4.0500e+03,4.3907e-07
4.0600e+03,4.3900e-07
4.0700e+03,4.3895e-07
4.0800e+03,4.3891e-07
4.0900e+03,4.3888e-07
4.1000e+03,4.3887e-07
4.1100e+03,4.3887e-07
4.1200e+03,4.3888e-07
4.1300e+03,4.3889e-07
4.1400e+03,4.3891e-07
4.1500e+03,4.3894e-07
4.1600e+03,4.3897e-07
4.1700e+03,4.3900e-07
4.1800e+03,4.3903e-07
4.1900e+03,4.3906e-07
4.2000e+03,4.3909e-07
4.2100e+03,4.3911e-07
4.2200e+03,4.3913e-07
4.2300e+03,4.3915e-07
4.2400e+03,4.3916e-07
4.2500e+03,4.3916e-07
4.2600e+03,4.3916e-07
4.2700e+03,4.3915e-07
4.2800e+03,4.3914e-07
4.2900e+03,4.3912e-07
4.3000e+03,4.3910e-07
4.3100e+03,4.3908e-07
4.3200e+03,4.3905e-07
4.3300e+03,4.3902e-07
4.3400e+03,4.3898e-07
4.3500e+03,4.3894e-07
4.3600e+03,4.3890e-07
4.3700e+03,4.3886e-07
4.3800e+03,4.3881e-07
4.3900e+03,4.3877e-07
4.4000e+03,4.3872e-07
4.4100e+03,4.3867e-07
4.4200e+03,4.3862e-07
4.4300e+03,4.3857e-07
4.4400e+03,4.3852e-07
4.4500e+03,4.3847e-07
4.4600e+03,4.3843e-07
4.4700e+03,4.3838e-07
4.4800e+03,4.3834e-07
4.4900e+03,4.3829e-07
4.5000e+03,4.3825e-07
4.5100e+03,4.3822e-07
4.5200e+03,4.3818e-07
4.5300e+03,4.3816e-07
4.5400e+03,4.3813e-07
4.5500e+03,4.3811e-07
4.5600e+03,4.3809e-07
4.5700e+03,4.3808e-07
4.5800e+03,4.3806e-07
4.5900e+03,4.3805e-07
4.6000e+03,4.3804e-07
4.6100e+03,4.3803e-07
4.6200e+03,4.3802e-07
4.6300e+03,4.3801e-07
4.6400e+03,4.3799e-07
4.6500e+03,4.3797e-07
4.6600e+03,4.3794e-07
4.6700e+03,4.3790e-07
4.6800e+03,4.3786e-07
4.6900e+03,4.3781e-07
4.7000e+03,4.3775e-07
4.7100e+03,4.3769e-07
4.7200e+03,4.3761e-07
4.7300e+03,4.3752e-07
4.7400e+03,4.3742e-07
4.7500e+03,4.3731e-07
4.7600e+03,4.3719e-07
4.7700e+03,4.3707e-07
4.7800e+03,4.3693e-07
4.7900e+03,4.3678e-07
4.8000e+03,4.3663e-07
4.8100e+03,4.3647e-07
4.8200e+03,4.3630e-07
4.8300e+03,4.3613e-07
4.8400e+03,4.3596e-07
4.8500e+03,4.3579e-07
4.8600e+03,4.3563e-07
4.8700e+03,4.3547e-07
4.8800e+03,4.3532e-07
4.8900e+03,4.3518e-07
4.9000e+03,4.3505e-07
4.9100e+03,4.3495e-07
4.9200e+03,4.3486e-07
4.9300e+03,4.3480e-07
4.9400e+03,4.3475e-07
4.9500e+03,4.3473e-07
4.9600e+03,4.3473e-07
4.9700e+03,4.3475e-07
4.9800e+03,4.3478e-07
4.9900e+03,4.3483e-07
5.0000e+03,4.3487e-07
5.0100e+03,4.3490e-07
5.0200e+03,4.3492e-07
5.0300e+03,4.3491e-07
5.0400e+03,4.3486e-07
5.0500e+03,4.3475e-07
5.0600e+03,4.3458e-07
5.0700e+03,4.3433e-07
5.0800e+03,4.3400e-07
5.0900e+03,4.3357e-07
5.1000e+03,4.3304e-07
5.1100e+03,4.3241e-07
5.1200e+03,4.3168e-07
5.1300e+03,4.3087e-07
5.1400e+03,4.2998e-07
5.1500e+03,4.2904e-07
5.1600e+03,4.2806e-07
5.1700e+03,4.2707e-07
5.1800e+03,4.2610e-07
5.1900e+03,4.2517e-07
5.2000e+03,4.2432e-07
5.2100e+03,4.2358e-07
5.2200e+03,4.2297e-07
5.2300e+03,4.2251e-07
5.2400e+03,4.2222e-07
5.2500e+03,4.2212e-07
5.2600e+03,4.2221e-07
5.2700e+03,4.2250e-07
5.2800e+03,4.2297e-07
5.2900e+03,4.2364e-07
5.3000e+03,4.2446e-07
5.3100e+03,4.2544e-07
5.3200e+03,4.2655e-07
5.3300e+03,4.2776e-07
5.3400e+03,4.2904e-07
5.3500e+03,4.3037e-07
5.3600e+03,4.3171e-07
5.3700e+03,4.3305e-07
5.3800e+03,4.3434e-07
5.3900e+03,4.3557e-07
5.4000e+03,4.3671e-07
5.4100e+03,4.3774e-07
5.4200e+03,4.3864e-07
5.4300e+03,4.3941e-07
5.4400e+03,4.4002e-07
5.4500e+03,4.4049e-07
5.4600e+03,4.4081e-07
5.4700e+03,4.4098e-07
5.4800e+03,4.4102e-07
5.4900e+03,4.4094e-07
5.5000e+03,4.4076e-07
5.5100e+03,4.4049e-07
5.5200e+03,4.4016e-07
5.5300e+03,4.3979e-07
5.5400e+03,4.3939e-07
5.5500e+03,4.3898e-07
5.5600e+03,4.3858e-07
5.5700e+03,4.3819e-07
5.5800e+03,4.3783e-07
5.5900e+03,4.3750e-07
5.6000e+03,4.3719e-07
5.6100e+03,4.3692e-07
5.6200e+03,4.3667e-07
5.6300e+03,4.3644e-07
5.6400e+03,4.3624e-07
5.6500e+03,4.3605e-07
5.6600e+03,4.3587e-07
5.6700e+03,4.3571e-07
5.6800e+03,4.3555e-07
5.6900e+03,4.3541e-07
5.7000e+03,4.3528e-07
5.7100e+03,4.3517e-07
5.7200e+03,4.3507e-07
5.7300e+03,4.3499e-07
5.7400e+03,4.3492e-07
5.7500e+03,4.3487e-07
5.7600e+03,4.3483e-07
5.7700e+03,4.3480e-07
5.7800e+03,4.3476e-07
5.7900e+03,4.3471e-07
5.8000e+03,4.3463e-07
5.8100e+03,4.3453e-07
5.8200e+03,4.3438e-07
5.8300e+03,4.3419e-07
5.8400e+03,4.3393e-07
5.8500e+03,4.3362e-07
5.8600e+03,4.3324e-07
5.8700e+03,4.3279e-07
5.8800e+03,4.3229e-07
5.8900e+03,4.3174e-07
5.9000e+03,4.3115e-07
5.9100e+03,4.3052e-07
5.9200e+03,4.2989e-07
5.9300e+03,4.2925e-07
5.9400e+03,4.2864e-07
5.9500e+03,4.2806e-07
5.9600e+03,4.2754e-07
5.9700e+03,4.2709e-07
5.9800e+03,4.2672e-07
5.9900e+03,4.2644e-07
6.0000e+03,4.2627e-07
6.0100e+03,4.2621e-07
6.0200e+03,4.2627e-07
6.0300e+03,4.2645e-07
6.0400e+03,4.2673e-07
6.0500e+03,4.2713e-07
6.0600e+03,4.2762e-07
6.0700e+03,4.2820e-07
6.0800e+03,4.2884e-07
6.0900e+03,4.2954e-07
6.1000e+03,4.3028e-07
6.1100e+03,4.3103e-07
6.1200e+03,4.3178e-07
6.1300e+03,4.3251e-07
6.1400e+03,4.3321e-07
6.1500e+03,4.3386e-07
6.1600e+03,4.3445e-07
6.1700e+03,4.3497e-07
6.1800e+03,4.3541e-07
6.1900e+03,4.3576e-07
6.2000e+03,4.3604e-07
6.2100e+03,4.3622e-07
6.2200e+03,4.3633e-07
6.2300e+03,4.3635e-07
6.2400e+03,4.3631e-07
6.2500e+03,4.3620e-07
6.2600e+03,4.3604e-07
6.2700e+03,4.3583e-07
6.2800e+03,4.3558e-07
6.2900e+03,4.3531e-07
6.3000e+03,4.3502e-07
6.3100e+03,4.3473e-07
6.3200e+03,4.3443e-07
6.3300e+03,4.3414e-07
6.3400e+03,4.3387e-07
6.3500e+03,4.3361e-07
6.3600e+03,4.3338e-07
6.3700e+03,4.3318e-07
6.3800e+03,4.3301e-07
6.3900e+03,4.3286e-07
6.4000e+03,4.3275e-07
6.4100e+03,4.3266e-07
6.4200e+03,4.3260e-07
6.4300e+03,4.3256e-07
6.4400e+03,4.3253e-07
6.4500e+03,4.3252e-07
6.4600e+03,4.3251e-07
6.4700e+03,4.3250e-07
6.4800e+03,4.3248e-07
6.4900e+03,4.3246e-07
6.5000e+03,4.3241e-07
6.5100e+03,4.3234e-07
6.5200e+03,4.3224e-07
6.5300e+03,4.3211e-07
6.5400e+03,4.3194e-07
6.5500e+03,4.3173e-07
6.5600e+03,4.3149e-07
6.5700e+03,4.3120e-07
6.5800e+03,4.3086e-07
6.5900e+03,4.3049e-07
6.6000e+03,4.3009e-07
6.6100e+03,4.2965e-07
6.6200e+03,4.2918e-07
6.6300e+03,4.2868e-07
6.6400e+03,4.2816e-07
6.6500e+03,4.2763e-07
6.6600e+03,4.2708e-07
6.6700e+03,4.2652e-07
6.6800e+03,4.2595e-07
6.6900e+03,4.2537e-07
6.7000e+03,4.2478e-07
6.7100e+03,4.2418e-07
6.7200e+03,4.2357e-07
6.7300e+03,4.2294e-07
6.7400e+03,4.2229e-07
6.7500e+03,4.2162e-07
6.7600e+03,4.2091e-07
6.7700e+03,4.2017e-07
6.7800e+03,4.1940e-07
6.7900e+03,4.1858e-07
6.8000e+03,4.1772e-07
6.8100e+03,4.1681e-07
6.8200e+03,4.1586e-07
6.8300e+03,4.1487e-07
6.8400e+03,4.1385e-07
6.8500e+03,4.1281e-07
6.8600e+03,4.1176e-07
6.8700e+03,4.1071e-07
6.8800e+03,4.0967e-07
6.8900e+03,4.0868e-07
6.9000e+03,4.0775e-07
6.9100e+03,4.0689e-07
6.9200e+03,4.0614e-07
6.9300e+03,4.0551e-07
6.9400e+03,4.0501e-07
6.9500e+03,4.0468e-07
6.9600e+03,4.0452e-07
6.9700e+03,4.0455e-07
6.9800e+03,4.0476e-07
6.9900e+03,4.0518e-07
7.0000e+03,4.0579e-07
7.0100e+03,4.0660e-07
7.0200e+03,4.0760e-07
7.0300e+03,4.0877e-07
7.0400e+03,4.1011e-07
7.0500e+03,4.1160e-07
7.0600e+03,4.1323e-07
7.0700e+03,4.1497e-07
7.0800e+03,4.1680e-07
7.0900e+03,4.1871e-07
7.1000e+03,4.2068e-07
7.1100e+03,4.2269e-07
7.1200e+03,4.2471e-07
7.1300e+03,4.2672e-07
7.1400e+03,4.2872e-07
7.1500e+03,4.3068e-07
7.1600e+03,4.3258e-07
7.1700e+03,4.3441e-07
7.1800e+03,4.3615e-07
7.1900e+03,4.3780e-07
7.2000e+03,4.3933e-07
7.2100e+03,4.4074e-07
7.2200e+03,4.4201e-07
7.2300e+03,4.4313e-07
7.2400e+03,4.4410e-07
7.2500e+03,4.4491e-07
7.2600e+03,4.4555e-07
7.2700e+03,4.4602e-07
7.2800e+03,4.4631e-07
7.2900e+03,4.4642e-07
7.3000e+03,4.4634e-07
7.3100e+03,4.4608e-07
7.3200e+03,4.4564e-07
7.3300e+03,4.4503e-07
7.3400e+03,4.4424e-07
7.3500e+03,4.4328e-07
7.3600e+03,4.4215e-07
7.3700e+03,4.4088e-07
7.3800e+03,4.3946e-07
7.3900e+03,4.3791e-07
7.4000e+03,4.3624e-07
7.4100e+03,4.3446e-07
7.4200e+03,4.3258e-07
7.4300e+03,4.3063e-07
7.4400e+03,4.2861e-07
7.4500e+03,4.2654e-07
7.4600e+03,4.2443e-07
7.4700e+03,4.2232e-07
7.4800e+03,4.2020e-07
7.4900e+03,4.1809e-07
7.5000e+03,4.1602e-07
7.5100e+03,4.1399e-07
7.5200e+03,4.1201e-07
7.5300e+03,4.1011e-07
7.5400e+03,4.0828e-07
7.5500e+03,4.0654e-07
7.5600e+03,4.0489e-07
7.5700e+03,4.0334e-07
7.5800e+03,4.0188e-07
7.5900e+03,4.0052e-07
7.6000e+03,3.9927e-07
7.6100e+03,3.9811e-07
7.6200e+03,3.9704e-07
7.6300e+03,3.9606e-07
7.6400e+03,3.9516e-07
7.6500e+03,3.9434e-07
7.6600e+03,3.9358e-07
7.6700e+03,3.9288e-07
7.6800e+03,3.9224e-07
7.6900e+03,3.9164e-07
7.7000e+03,3.9106e-07
7.7100e+03,3.9052e-07
7.7200e+03,3.8998e-07
7.7300e+03,3.8945e-07
7.7400e+03,3.8892e-07
7.7500e+03,3.8838e-07
7.7600e+03,3.8782e-07
7.7700e+03,3.8725e-07
7.7800e+03,3.8665e-07
7.7900e+03,3.8603e-07
7.8000e+03,3.8538e-07
7.8100e+03,3.8470e-07
7.8200e+03,3.8400e-07
7.8300e+03,3.8328e-07
7.8400e+03,3.8254e-07
7.8500e+03,3.8178e-07
7.8600e+03,3.8101e-07
7.8700e+03,3.8024e-07
7.8800e+03,3.7948e-07
7.8900e+03,3.7872e-07
7.9000e+03,3.7797e-07
7.9100e+03,3.7724e-07
7.9200e+03,3.7655e-07
7.9300e+03,3.7588e-07
7.9400e+03,3.7526e-07
7.9500e+03,3.7468e-07
7.9600e+03,3.7414e-07
7.9700e+03,3.7366e-07
7.9800e+03,3.7323e-07
7.9900e+03,3.7286e-07
8.0000e+03,3.7253e-07
8.0100e+03,3.7226e-07
8.0200e+03,3.7203e-07
8.0300e+03,3.7184e-07
8.0400e+03,3.7169e-07
8.0500e+03,3.7156e-07
8.0600e+03,3.7146e-07
8.0700e+03,3.7137e-07
8.0800e+03,3.7128e-07
8.0900e+03,3.7119e-07
8.1000e+03,3.7109e-07
8.1100e+03,3.7097e-07
8.1200e+03,3.7081e-07
8.1300e+03,3.7062e-07
8.1400e+03,3.7038e-07
8.1500e+03,3.7009e-07
8.1600e+03,3.6974e-07
8.1700e+03,3.6932e-07
8.1800e+03,3.6884e-07
8.1900e+03,3.6827e-07
8.2000e+03,3.6763e-07
8.2100e+03,3.6689e-07
8.2200e+03,3.6607e-07
8.2300e+03,3.6515e-07
8.2400e+03,3.6414e-07
8.2500e+03,3.6304e-07
8.2600e+03,3.6184e-07
8.2700e+03,3.6055e-07
8.2800e+03,3.5916e-07
8.2900e+03,3.5770e-07
8.3000e+03,3.5616e-07
8.3100e+03,3.5456e-07
8.3200e+03,3.5291e-07
8.3300e+03,3.5121e-07
8.3400e+03,3.4950e-07
8.3500e+03,3.4778e-07
8.3600e+03,3.4607e-07
8.3700e+03,3.4438e-07
8.3800e+03,3.4275e-07
8.3900e+03,3.4117e-07
8.4000e+03,3.3967e-07
8.4100e+03,3.3825e-07
8.4200e+03,3.3694e-07
8.4300e+03,3.3573e-07
8.4400e+03,3.3463e-07
8.4500e+03,3.3365e-07
8.4600e+03,3.3279e-07
8.4700e+03,3.3204e-07
8.4800e+03,3.3140e-07
8.4900e+03,3.3087e-07
8.5000e+03,3.3043e-07
8.5100e+03,3.3008e-07
8.5200e+03,3.2981e-07
8.5300e+03,3.2961e-07
8.5400e+03,3.2946e-07
8.5500e+03,3.2937e-07
8.5600e+03,3.2933e-07
8.5700e+03,3.2933e-07
8.5800e+03,3.2937e-07
8.5900e+03,3.2944e-07
8.6000e+03,3.2955e-07
8.6100e+03,3.2969e-07
8.6200e+03,3.2986e-07
8.6300e+03,3.3006e-07
8.6400e+03,3.3029e-07
8.6500e+03,3.3054e-07
8.6600e+03,3.3083e-07
8.6700e+03,3.3114e-07
8.6800e+03,3.3147e-07
8.6900e+03,3.3183e-07
8.7000e+03,3.3220e-07
8.7100e+03,3.3260e-07
8.7200e+03,3.3303e-07
8.7300e+03,3.3349e-07
8.7400e+03,3.3398e-07
8.7500e+03,3.3451e-07
8.7600e+03,3.3510e-07
8.7700e+03,3.3575e-07
8.7800e+03,3.3647e-07
8.7900e+03,3.3728e-07
8.8000e+03,3.3820e-07
8.8100e+03,3.3923e-07
8.8200e+03,3.4039e-07
8.8300e+03,3.4170e-07
8.8400e+03,3.4317e-07
8.8500e+03,3.4482e-07
8.8600e+03,3.4665e-07
8.8700e+03,3.4867e-07
8.8800e+03,3.5090e-07
8.8900e+03,3.5333e-07
8.9000e+03,3.5597e-07
8.9100e+03,3.5881e-07
8.9200e+03,3.6184e-07
8.9300e+03,3.6505e-07
8.9400e+03,3.6843e-07
8.9500e+03,3.7196e-07
8.9600e+03,3.7561e-07
8.9700e+03,3.7936e-07
8.9800e+03,3.8320e-07
8.9900e+03,3.8708e-07
9.0000e+03,3.9100e-07
9.0100e+03,3.9491e-07
9.0200e+03,3.9881e-07
9.0300e+03,4.0266e-07
9.0400e+03,4.0644e-07
9.0500e+03,4.1014e-07
9.0600e+03,4.1374e-07
9.0700e+03,4.1723e-07
