# Time , Side-Flux
0.0000e+00,0.0000e+00
1.0000e+01,6.7011e-05
2.0000e+01,1.2494e-04
3.0000e+01,1.6944e-04
4.0000e+01,2.0099e-04
5.0000e+01,2.2223e-04
6.0000e+01,2.3602e-04
7.0000e+01,2.4467e-04
8.0000e+01,2.4983e-04
9.0000e+01,2.5266e-04
1.0000e+02,2.5397e-04
1.1000e+02,2.5430e-04
1.2000e+02,2.5404e-04
1.3000e+02,2.5345e-04
1.4000e+02,2.5270e-04
1.5000e+02,2.5190e-04
1.6000e+02,2.5112e-04
1.7000e+02,2.5040e-04
1.8000e+02,2.4977e-04
1.9000e+02,2.4924e-04
2.0000e+02,2.4879e-04
2.1000e+02,2.4844e-04
2.2000e+02,2.4816e-04
2.3000e+02,2.4794e-04
2.4000e+02,2.4778e-04
2.5000e+02,2.4767e-04
2.6000e+02,2.4760e-04
2.7000e+02,2.4755e-04
2.8000e+02,2.4752e-04
2.9000e+02,2.4751e-04
3.0000e+02,2.4750e-04
3.1000e+02,2.4750e-04
3.2000e+02,2.4751e-04
3.3000e+02,2.4751e-04
3.4000e+02,2.4750e-04
3.5000e+02,2.4749e-04
3.6000e+02,2.4750e-04
3.7000e+02,2.4752e-04
3.8000e+02,2.4752e-04
3.9000e+02,2.4750e-04
4.0000e+02,2.4745e-04
4.1000e+02,2.4740e-04
4.2000e+02,2.4735e-04
4.3000e+02,2.4733e-04
4.4000e+02,2.4732e-04
4.5000e+02,2.4732e-04
4.6000e+02,2.4731e-04
4.7000e+02,2.4730e-04
4.8000e+02,2.4728e-04
4.9000e+02,2.4726e-04
5.0000e+02,2.4723e-04
5.1000e+02,2.4721e-04
5.2000e+02,2.4719e-04
5.3000e+02,2.4717e-04
5.4000e+02,2.4715e-04
5.5000e+02,2.4712e-04
5.6000e+02,2.4709e-04
5.7000e+02,2.4704e-04
5.8000e+02,2.4696e-04
5.9000e+02,2.4682e-04
6.0000e+02,2.4659e-04
6.1000e+02,2.4625e-04
6.2000e+02,2.4581e-04
6.3000e+02,2.4528e-04
6.4000e+02,2.4463e-04
6.5000e+02,2.4384e-04
6.6000e+02,2.4286e-04
6.7000e+02,2.4174e-04
6.8000e+02,2.4054e-04
6.9000e+02,2.3938e-04
7.0000e+02,2.3826e-04
7.1000e+02,2.3713e-04
7.2000e+02,2.3589e-04
7.3000e+02,2.3450e-04
7.4000e+02,2.3301e-04
7.5000e+02,2.3157e-04
7.6000e+02,2.3032e-04
7.7000e+02,2.2941e-04
7.8000e+02,2.2885e-04
7.9000e+02,2.2853e-04
8.0000e+02,2.2823e-04
8.1000e+02,2.2772e-04
8.2000e+02,2.2686e-04
8.3000e+02,2.2564e-04
8.4000e+02,2.2424e-04
8.5000e+02,2.2294e-04
8.6000e+02,2.2199e-04
8.7000e+02,2.2150e-04
8.8000e+02,2.2146e-04
8.9000e+02,2.2178e-04
9.0000e+02,2.2230e-04
9.1000e+02,2.2273e-04
9.2000e+02,2.2275e-04
9.3000e+02,2.2214e-04
9.4000e+02,2.2080e-04
9.5000e+02,2.1877e-04
9.6000e+02,2.1620e-04
9.7000e+02,2.1333e-04
9.8000e+02,2.1054e-04
9.9000e+02,2.0831e-04
1.0000e+03,2.0706e-04
1.0100e+03,2.0694e-04
1.0200e+03,2.0784e-04
1.0300e+03,2.0936e-04
1.0400e+03,2.1100e-04
1.0500e+03,2.1235e-04
1.0600e+03,2.1308e-04
1.0700e+03,2.1292e-04
1.0800e+03,2.1171e-04
1.0900e+03,2.0941e-04
1.1000e+03,2.0618e-04
1.1100e+03,2.0244e-04
1.1200e+03,1.9869e-04
1.1300e+03,1.9531e-04
1.1400e+03,1.9254e-04
1.1500e+03,1.9048e-04
1.1600e+03,1.8915e-04
1.1700e+03,1.8842e-04
1.1800e+03,1.8817e-04
1.1900e+03,1.8831e-04
1.2000e+03,1.8876e-04
1.2100e+03,1.8942e-04
1.2200e+03,1.9019e-04
1.2300e+03,1.9094e-04
1.2400e+03,1.9157e-04
1.2500e+03,1.9196e-04
1.2600e+03,1.9199e-04
1.2700e+03,1.9164e-04
1.2800e+03,1.9100e-04
1.2900e+03,1.9019e-04
1.3000e+03,1.8933e-04
1.3100e+03,1.8850e-04
1.3200e+03,1.8772e-04
1.3300e+03,1.8700e-04
1.3400e+03,1.8628e-04
1.3500e+03,1.8549e-04
1.3600e+03,1.8455e-04
1.3700e+03,1.8350e-04
1.3800e+03,1.8244e-04
1.3900e+03,1.8151e-04
1.4000e+03,1.8078e-04
1.4100e+03,1.8027e-04
1.4200e+03,1.7994e-04
1.4300e+03,1.7975e-04
1.4400e+03,1.7965e-04
1.4500e+03,1.7964e-04
1.4600e+03,1.7966e-04
1.4700e+03,1.7967e-04
1.4800e+03,1.7963e-04
1.4900e+03,1.7955e-04
1.5000e+03,1.7943e-04
1.5100e+03,1.7930e-04
1.5200e+03,1.7916e-04
1.5300e+03,1.7904e-04
1.5400e+03,1.7894e-04
1.5500e+03,1.7889e-04
1.5600e+03,1.7886e-04
1.5700e+03,1.7887e-04
1.5800e+03,1.7888e-04
1.5900e+03,1.7889e-04
1.6000e+03,1.7890e-04
1.6100e+03,1.7890e-04
1.6200e+03,1.7889e-04
1.6300e+03,1.7888e-04
1.6400e+03,1.7886e-04
1.6500e+03,1.7881e-04
1.6600e+03,1.7873e-04
1.6700e+03,1.7863e-04
1.6800e+03,1.7853e-04
1.6900e+03,1.7844e-04
1.7000e+03,1.7834e-04
1.7100e+03,1.7818e-04
1.7200e+03,1.7794e-04
1.7300e+03,1.7762e-04
1.7400e+03,1.7727e-04
1.7500e+03,1.7695e-04
1.7600e+03,1.7675e-04
1.7700e+03,1.7671e-04
1.7800e+03,1.7685e-04
1.7900e+03,1.7711e-04
1.8000e+03,1.7736e-04
1.8100e+03,1.7746e-04
1.8200e+03,1.7727e-04
1.8300e+03,1.7672e-04
1.8400e+03,1.7585e-04
1.8500e+03,1.7478e-04
1.8600e+03,1.7366e-04
1.8700e+03,1.7265e-04
1.8800e+03,1.7183e-04
1.8900e+03,1.7119e-04
1.9000e+03,1.7069e-04
1.9100e+03,1.7027e-04
1.9200e+03,1.6990e-04
1.9300e+03,1.6961e-04
1.9400e+03,1.6942e-04
1.9500e+03,1.6933e-04
1.9600e+03,1.6936e-04
1.9700e+03,1.6951e-04
1.9800e+03,1.6974e-04
1.9900e+03,1.7001e-04
2.0000e+03,1.7024e-04
2.0100e+03,1.7039e-04
2.0200e+03,1.7047e-04
2.0300e+03,1.7051e-04
2.0400e+03,1.7051e-04
2.0500e+03,1.7046e-04
2.0600e+03,1.7035e-04
2.0700e+03,1.7017e-04
2.0800e+03,1.6990e-04
2.0900e+03,1.6953e-04
2.1000e+03,1.6907e-04
2.1100e+03,1.6854e-04
2.1200e+03,1.6792e-04
2.1300e+03,1.6712e-04
2.1400e+03,1.6604e-04
2.1500e+03,1.6465e-04
2.1600e+03,1.6299e-04
2.1700e+03,1.6105e-04
2.1800e+03,1.5880e-04
2.1900e+03,1.5632e-04
2.2000e+03,1.5383e-04
2.2100e+03,1.5157e-04
2.2200e+03,1.4967e-04
2.2300e+03,1.4810e-04
2.2400e+03,1.4669e-04
2.2500e+03,1.4536e-04
2.2600e+03,1.4411e-04
2.2700e+03,1.4310e-04
2.2800e+03,1.4247e-04
2.2900e+03,1.4226e-04
2.3000e+03,1.4238e-04
2.3100e+03,1.4275e-04
2.3200e+03,1.4335e-04
2.3300e+03,1.4415e-04
2.3400e+03,1.4497e-04
2.3500e+03,1.4562e-04
2.3600e+03,1.4601e-04
2.3700e+03,1.4615e-04
2.3800e+03,1.4607e-04
2.3900e+03,1.4583e-04
2.4000e+03,1.4552e-04
2.4100e+03,1.4517e-04
2.4200e+03,1.4482e-04
2.4300e+03,1.4447e-04
2.4400e+03,1.4417e-04
2.4500e+03,1.4399e-04
2.4600e+03,1.4391e-04
2.4700e+03,1.4386e-04
2.4800e+03,1.4372e-04
2.4900e+03,1.4345e-04
2.5000e+03,1.4311e-04
2.5100e+03,1.4275e-04
2.5200e+03,1.4241e-04
2.5300e+03,1.4209e-04
2.5400e+03,1.4177e-04
2.5500e+03,1.4143e-04
2.5600e+03,1.4104e-04
2.5700e+03,1.4058e-04
2.5800e+03,1.4009e-04
2.5900e+03,1.3965e-04
2.6000e+03,1.3934e-04
2.6100e+03,1.3920e-04
2.6200e+03,1.3921e-04
2.6300e+03,1.3931e-04
2.6400e+03,1.3943e-04
2.6500e+03,1.3949e-04
2.6600e+03,1.3950e-04
2.6700e+03,1.3944e-04
2.6800e+03,1.3935e-04
2.6900e+03,1.3920e-04
2.7000e+03,1.3901e-04
2.7100e+03,1.3878e-04
2.7200e+03,1.3849e-04
2.7300e+03,1.3814e-04
2.7400e+03,1.3774e-04
2.7500e+03,1.3730e-04
2.7600e+03,1.3687e-04
2.7700e+03,1.3649e-04
2.7800e+03,1.3618e-04
2.7900e+03,1.3594e-04
2.8000e+03,1.3574e-04
2.8100e+03,1.3552e-04
2.8200e+03,1.3524e-04
2.8300e+03,1.3488e-04
2.8400e+03,1.3443e-04
2.8500e+03,1.3391e-04
2.8600e+03,1.3331e-04
2.8700e+03,1.3264e-04
2.8800e+03,1.3188e-04
2.8900e+03,1.3099e-04
2.9000e+03,1.2993e-04
2.9100e+03,1.2872e-04
2.9200e+03,1.2743e-04
2.9300e+03,1.2620e-04
2.9400e+03,1.2512e-04
2.9500e+03,1.2421e-04
2.9600e+03,1.2339e-04
2.9700e+03,1.2259e-04
2.9800e+03,1.2167e-04
2.9900e+03,1.2052e-04
3.0000e+03,1.1911e-04
3.0100e+03,1.1753e-04
3.0200e+03,1.1603e-04
3.0300e+03,1.1484e-04
3.0400e+03,1.1402e-04
3.0500e+03,1.1353e-04
3.0600e+03,1.1334e-04
3.0700e+03,1.1335e-04
3.0800e+03,1.1332e-04
3.0900e+03,1.1286e-04
3.1000e+03,1.1170e-04
3.1100e+03,1.0987e-04
3.1200e+03,1.0779e-04
3.1300e+03,1.0596e-04
3.1400e+03,1.0476e-04
3.1500e+03,1.0426e-04
3.1600e+03,1.0436e-04
3.1700e+03,1.0494e-04
3.1800e+03,1.0587e-04
3.1900e+03,1.0692e-04
3.2000e+03,1.0782e-04
3.2100e+03,1.0835e-04
3.2200e+03,1.0847e-04
3.2300e+03,1.0829e-04
3.2400e+03,1.0793e-04
3.2500e+03,1.0749e-04
3.2600e+03,1.0705e-04
3.2700e+03,1.0668e-04
3.2800e+03,1.0642e-04
3.2900e+03,1.0628e-04
3.3000e+03,1.0622e-04
3.3100e+03,1.0621e-04
3.3200e+03,1.0624e-04
3.3300e+03,1.0630e-04
3.3400e+03,1.0638e-04
3.3500e+03,1.0647e-04
3.3600e+03,1.0658e-04
3.3700e+03,1.0669e-04
3.3800e+03,1.0677e-04
3.3900e+03,1.0680e-04
3.4000e+03,1.0675e-04
3.4100e+03,1.0662e-04
3.4200e+03,1.0643e-04
3.4300e+03,1.0618e-04
3.4400e+03,1.0590e-04
3.4500e+03,1.0563e-04
3.4600e+03,1.0541e-04
3.4700e+03,1.0528e-04
3.4800e+03,1.0516e-04
3.4900e+03,1.0497e-04
3.5000e+03,1.0464e-04
3.5100e+03,1.0417e-04
3.5200e+03,1.0367e-04
3.5300e+03,1.0320e-04
3.5400e+03,1.0281e-04
3.5500e+03,1.0253e-04
3.5600e+03,1.0237e-04
3.5700e+03,1.0231e-04
3.5800e+03,1.0234e-04
3.5900e+03,1.0240e-04
3.6000e+03,1.0247e-04
3.6100e+03,1.0250e-04
3.6200e+03,1.0246e-04
3.6300e+03,1.0236e-04
3.6400e+03,1.0223e-04
3.6500e+03,1.0214e-04
3.6600e+03,1.0216e-04
3.6700e+03,1.0232e-04
3.6800e+03,1.0258e-04
3.6900e+03,1.0289e-04
3.7000e+03,1.0317e-04
3.7100e+03,1.0335e-04
3.7200e+03,1.0341e-04
3.7300e+03,1.0331e-04
3.7400e+03,1.0306e-04
3.7500e+03,1.0267e-04
3.7600e+03,1.0219e-04
3.7700e+03,1.0171e-04
3.7800e+03,1.0132e-04
3.7900e+03,1.0106e-04
3.8000e+03,1.0096e-04
3.8100e+03,1.0097e-04
3.8200e+03,1.0104e-04
3.8300e+03,1.0113e-04
3.8400e+03,1.0118e-04
3.8500e+03,1.0118e-04
3.8600e+03,1.0110e-04
3.8700e+03,1.0097e-04
3.8800e+03,1.0081e-04
3.8900e+03,1.0065e-04
3.9000e+03,1.0044e-04
3.9100e+03,1.0015e-04
3.9200e+03,9.9721e-05
3.9300e+03,9.9182e-05
3.9400e+03,9.8604e-05
3.9500e+03,9.8084e-05
3.9600e+03,9.7714e-05
3.9700e+03,9.7549e-05
3.9800e+03,9.7569e-05
3.9900e+03,9.7639e-05
4.0000e+03,9.7519e-05
4.0100e+03,9.6959e-05
4.0200e+03,9.5800e-05
4.0300e+03,9.4029e-05
4.0400e+03,9.1771e-05
4.0500e+03,8.9269e-05
4.0600e+03,8.6841e-05
4.0700e+03,8.4772e-05
4.0800e+03,8.3234e-05
4.0900e+03,8.2288e-05
4.1000e+03,8.1871e-05
4.1100e+03,8.1749e-05
4.1200e+03,8.1559e-05
4.1300e+03,8.1001e-05
4.1400e+03,8.0021e-05
4.1500e+03,7.8800e-05
4.1600e+03,7.7623e-05
4.1700e+03,7.6749e-05
4.1800e+03,7.6353e-05
4.1900e+03,7.6504e-05
4.2000e+03,7.7138e-05
4.2100e+03,7.8092e-05
4.2200e+03,7.9163e-05
4.2300e+03,8.0165e-05
4.2400e+03,8.0972e-05
4.2500e+03,8.1540e-05
4.2600e+03,8.1891e-05
4.2700e+03,8.2073e-05
4.2800e+03,8.2108e-05
4.2900e+03,8.1976e-05
4.3000e+03,8.1640e-05
4.3100e+03,8.1091e-05
4.3200e+03,8.0371e-05
4.3300e+03,7.9555e-05
4.3400e+03,7.8719e-05
4.3500e+03,7.7939e-05
4.3600e+03,7.7286e-05
4.3700e+03,7.6788e-05
4.3800e+03,7.6395e-05
4.3900e+03,7.6013e-05
4.4000e+03,7.5530e-05
4.4100e+03,7.4848e-05
4.4200e+03,7.3894e-05
4.4300e+03,7.2662e-05
4.4400e+03,7.1229e-05
4.4500e+03,6.9724e-05
4.4600e+03,6.8293e-05
4.4700e+03,6.7086e-05
4.4800e+03,6.6259e-05
4.4900e+03,6.5924e-05
4.5000e+03,6.6101e-05
4.5100e+03,6.6725e-05
4.5200e+03,6.7677e-05
4.5300e+03,6.8810e-05
4.5400e+03,6.9966e-05
4.5500e+03,7.0998e-05
4.5600e+03,7.1798e-05
4.5700e+03,7.2327e-05
4.5800e+03,7.2610e-05
4.5900e+03,7.2723e-05
4.6000e+03,7.2762e-05
4.6100e+03,7.2815e-05
4.6200e+03,7.2930e-05
4.6300e+03,7.3106e-05
4.6400e+03,7.3298e-05
4.6500e+03,7.3451e-05
4.6600e+03,7.3524e-05
4.6700e+03,7.3488e-05
4.6800e+03,7.3320e-05
4.6900e+03,7.3026e-05
4.7000e+03,7.2668e-05
4.7100e+03,7.2360e-05
4.7200e+03,7.2191e-05
4.7300e+03,7.2189e-05
4.7400e+03,7.2321e-05
4.7500e+03,7.2529e-05
4.7600e+03,7.2744e-05
4.7700e+03,7.2896e-05
4.7800e+03,7.2925e-05
4.7900e+03,7.2785e-05
4.8000e+03,7.2442e-05
4.8100e+03,7.1871e-05
4.8200e+03,7.1078e-05
4.8300e+03,7.0153e-05
4.8400e+03,6.9234e-05
4.8500e+03,6.8420e-05
4.8600e+03,6.7710e-05
4.8700e+03,6.7047e-05
4.8800e+03,6.6380e-05
4.8900e+03,6.5710e-05
4.9000e+03,6.5090e-05
4.9100e+03,6.4584e-05
4.9200e+03,6.4221e-05
4.9300e+03,6.3981e-05
4.9400e+03,6.3818e-05
4.9500e+03,6.3684e-05
4.9600e+03,6.3549e-05
4.9700e+03,6.3404e-05
4.9800e+03,6.3265e-05
4.9900e+03,6.3175e-05
5.0000e+03,6.3182e-05
5.0100e+03,6.3312e-05
5.0200e+03,6.3556e-05
5.0300e+03,6.3870e-05
5.0400e+03,6.4178e-05
5.0500e+03,6.4374e-05
5.0600e+03,6.4347e-05
5.0700e+03,6.4029e-05
5.0800e+03,6.3428e-05
5.0900e+03,6.2594e-05
5.1000e+03,6.1571e-05
5.1100e+03,6.0369e-05
5.1200e+03,5.8965e-05
5.1300e+03,5.7338e-05
5.1400e+03,5.5527e-05
5.1500e+03,5.3648e-05
5.1600e+03,5.1847e-05
5.1700e+03,5.0222e-05
5.1800e+03,4.8794e-05
5.1900e+03,4.7588e-05
5.2000e+03,4.6707e-05
5.2100e+03,4.6339e-05
5.2200e+03,4.6652e-05
5.2300e+03,4.7670e-05
5.2400e+03,4.9238e-05
5.2500e+03,5.1126e-05
5.2600e+03,5.3158e-05
5.2700e+03,5.5261e-05
5.2800e+03,5.7415e-05
5.2900e+03,5.9569e-05
5.3000e+03,6.1575e-05
5.3100e+03,6.3212e-05
5.3200e+03,6.4278e-05
5.3300e+03,6.4666e-05
5.3400e+03,6.4414e-05
5.3500e+03,6.3702e-05
5.3600e+03,6.2784e-05
5.3700e+03,6.1931e-05
5.3800e+03,6.1419e-05
5.3900e+03,6.1484e-05
5.4000e+03,6.2225e-05
5.4100e+03,6.3572e-05
5.4200e+03,6.5313e-05
5.4300e+03,6.7156e-05
5.4400e+03,6.8832e-05
5.4500e+03,7.0210e-05
5.4600e+03,7.1284e-05
5.4700e+03,7.2077e-05
5.4800e+03,7.2587e-05
5.4900e+03,7.2808e-05
5.5000e+03,7.2737e-05
5.5100e+03,7.2350e-05
5.5200e+03,7.1647e-05
5.5300e+03,7.0693e-05
5.5400e+03,6.9614e-05
5.5500e+03,6.8528e-05
5.5600e+03,6.7487e-05
5.5700e+03,6.6470e-05
5.5800e+03,6.5419e-05
5.5900e+03,6.4307e-05
5.6000e+03,6.3170e-05
5.6100e+03,6.2094e-05
5.6200e+03,6.1196e-05
5.6300e+03,6.0564e-05
5.6400e+03,6.0206e-05
5.6500e+03,6.0058e-05
5.6600e+03,6.0068e-05
5.6700e+03,6.0250e-05
5.6800e+03,6.0662e-05
5.6900e+03,6.1337e-05
5.7000e+03,6.2245e-05
5.7100e+03,6.3294e-05
5.7200e+03,6.4370e-05
5.7300e+03,6.5385e-05
5.7400e+03,6.6316e-05
5.7500e+03,6.7205e-05
5.7600e+03,6.8102e-05
5.7700e+03,6.9056e-05
5.7800e+03,7.0127e-05
5.7900e+03,7.1377e-05
5.8000e+03,7.2773e-05
5.8100e+03,7.4138e-05
5.8200e+03,7.5227e-05
5.8300e+03,7.5858e-05
5.8400e+03,7.5984e-05
5.8500e+03,7.5695e-05
5.8600e+03,7.5141e-05
5.8700e+03,7.4448e-05
5.8800e+03,7.3680e-05
5.8900e+03,7.2854e-05
5.9000e+03,7.1986e-05
5.9100e+03,7.1123e-05
5.9200e+03,7.0326e-05
5.9300e+03,6.9641e-05
5.9400e+03,6.9089e-05
5.9500e+03,6.8676e-05
5.9600e+03,6.8394e-05
5.9700e+03,6.8226e-05
5.9800e+03,6.8143e-05
5.9900e+03,6.8124e-05
6.0000e+03,6.8162e-05
6.0100e+03,6.8266e-05
6.0200e+03,6.8452e-05
6.0300e+03,6.8733e-05
6.0400e+03,6.9110e-05
6.0500e+03,6.9568e-05
6.0600e+03,7.0078e-05
6.0700e+03,7.0601e-05
6.0800e+03,7.1110e-05
6.0900e+03,7.1613e-05
6.1000e+03,7.2148e-05
6.1100e+03,7.2747e-05
6.1200e+03,7.3411e-05
6.1300e+03,7.4095e-05
6.1400e+03,7.4732e-05
6.1500e+03,7.5271e-05
6.1600e+03,7.5690e-05
6.1700e+03,7.5982e-05
6.1800e+03,7.6146e-05
6.1900e+03,7.6192e-05
6.2000e+03,7.6141e-05
6.2100e+03,7.6021e-05
6.2200e+03,7.5859e-05
6.2300e+03,7.5644e-05
6.2400e+03,7.5317e-05
6.2500e+03,7.4811e-05
6.2600e+03,7.4116e-05
6.2700e+03,7.3293e-05
6.2800e+03,7.2444e-05
6.2900e+03,7.1679e-05
6.3000e+03,7.1100e-05
6.3100e+03,7.0770e-05
6.3200e+03,7.0684e-05
6.3300e+03,7.0766e-05
6.3400e+03,7.0900e-05
6.3500e+03,7.0969e-05
6.3600e+03,7.0901e-05
6.3700e+03,7.0686e-05
6.3800e+03,7.0353e-05
6.3900e+03,6.9939e-05
6.4000e+03,6.9482e-05
6.4100e+03,6.9027e-05
6.4200e+03,6.8614e-05
6.4300e+03,6.8282e-05
6.4400e+03,6.8069e-05
6.4500e+03,6.7990e-05
6.4600e+03,6.8021e-05
6.4700e+03,6.8115e-05
6.4800e+03,6.8227e-05
6.4900e+03,6.8322e-05
6.5000e+03,6.8371e-05
6.5100e+03,6.8347e-05
6.5200e+03,6.8227e-05
6.5300e+03,6.7988e-05
6.5400e+03,6.7608e-05
6.5500e+03,6.7058e-05
6.5600e+03,6.6318e-05
6.5700e+03,6.5394e-05
6.5800e+03,6.4319e-05
6.5900e+03,6.3158e-05
6.6000e+03,6.2023e-05
6.6100e+03,6.1048e-05
6.6200e+03,6.0278e-05
6.6300e+03,5.9642e-05
6.6400e+03,5.9048e-05
6.6500e+03,5.8470e-05
6.6600e+03,5.7940e-05
6.6700e+03,5.7494e-05
6.6800e+03,5.7152e-05
6.6900e+03,5.6929e-05
6.7000e+03,5.6835e-05
6.7100e+03,5.6859e-05
6.7200e+03,5.6957e-05
6.7300e+03,5.7080e-05
6.7400e+03,5.7187e-05
6.7500e+03,5.7243e-05
6.7600e+03,5.7207e-05
6.7700e+03,5.7035e-05
6.7800e+03,5.6705e-05
6.7900e+03,5.6224e-05
6.8000e+03,5.5628e-05
6.8100e+03,5.4980e-05
6.8200e+03,5.4345e-05
6.8300e+03,5.3765e-05
6.8400e+03,5.3231e-05
6.8500e+03,5.2705e-05
6.8600e+03,5.2176e-05
6.8700e+03,5.1699e-05
6.8800e+03,5.1331e-05
6.8900e+03,5.1063e-05
6.9000e+03,5.0842e-05
6.9100e+03,5.0630e-05
6.9200e+03,5.0428e-05
6.9300e+03,5.0256e-05
6.9400e+03,5.0142e-05
6.9500e+03,5.0107e-05
6.9600e+03,5.0142e-05
6.9700e+03,5.0198e-05
6.9800e+03,5.0217e-05
6.9900e+03,5.0179e-05
7.0000e+03,5.0137e-05
7.0100e+03,5.0195e-05
7.0200e+03,5.0435e-05
7.0300e+03,5.0865e-05
7.0400e+03,5.1445e-05
7.0500e+03,5.2101e-05
7.0600e+03,5.2724e-05
7.0700e+03,5.3212e-05
7.0800e+03,5.3537e-05
7.0900e+03,5.3753e-05
7.1000e+03,5.3940e-05
7.1100e+03,5.4140e-05
7.1200e+03,5.4358e-05
7.1300e+03,5.4580e-05
7.1400e+03,5.4787e-05
7.1500e+03,5.4933e-05
7.1600e+03,5.4987e-05
7.1700e+03,5.4971e-05
7.1800e+03,5.4956e-05
7.1900e+03,5.4990e-05
7.2000e+03,5.5057e-05
7.2100e+03,5.5111e-05
7.2200e+03,5.5144e-05
7.2300e+03,5.5180e-05
7.2400e+03,5.5239e-05
7.2500e+03,5.5326e-05
7.2600e+03,5.5448e-05
7.2700e+03,5.5612e-05
7.2800e+03,5.5796e-05
7.2900e+03,5.5947e-05
7.3000e+03,5.6013e-05
7.3100e+03,5.5971e-05
7.3200e+03,5.5841e-05
7.3300e+03,5.5655e-05
7.3400e+03,5.5427e-05
7.3500e+03,5.5145e-05
7.3600e+03,5.4787e-05
7.3700e+03,5.4339e-05
7.3800e+03,5.3805e-05
7.3900e+03,5.3201e-05
7.4000e+03,5.2553e-05
7.4100e+03,5.1892e-05
7.4200e+03,5.1254e-05
7.4300e+03,5.0678e-05
7.4400e+03,5.0192e-05
7.4500e+03,4.9794e-05
7.4600e+03,4.9444e-05
7.4700e+03,4.9085e-05
7.4800e+03,4.8678e-05
7.4900e+03,4.8215e-05
7.5000e+03,4.7704e-05
7.5100e+03,4.7144e-05
7.5200e+03,4.6543e-05
7.5300e+03,4.5992e-05
7.5400e+03,4.5686e-05
7.5500e+03,4.5830e-05
7.5600e+03,4.6477e-05
7.5700e+03,4.7453e-05
7.5800e+03,4.8463e-05
7.5900e+03,4.9226e-05
7.6000e+03,4.9541e-05
7.6100e+03,4.9354e-05
7.6200e+03,4.8769e-05
7.6300e+03,4.7953e-05
7.6400e+03,4.7001e-05
7.6500e+03,4.5927e-05
7.6600e+03,4.4781e-05
7.6700e+03,4.3741e-05
7.6800e+03,4.3097e-05
7.6900e+03,4.3118e-05
7.7000e+03,4.3870e-05
7.7100e+03,4.5138e-05
7.7200e+03,4.6532e-05
7.7300e+03,4.7679e-05
7.7400e+03,4.8357e-05
7.7500e+03,4.8518e-05
7.7600e+03,4.8247e-05
7.7700e+03,4.7727e-05
7.7800e+03,4.7194e-05
7.7900e+03,4.6837e-05
7.8000e+03,4.6735e-05
7.8100e+03,4.6835e-05
7.8200e+03,4.7003e-05
7.8300e+03,4.7109e-05
7.8400e+03,4.7086e-05
7.8500e+03,4.6905e-05
7.8600e+03,4.6561e-05
7.8700e+03,4.6091e-05
7.8800e+03,4.5585e-05
7.8900e+03,4.5170e-05
7.9000e+03,4.4949e-05
7.9100e+03,4.4960e-05
7.9200e+03,4.5200e-05
7.9300e+03,4.5639e-05
7.9400e+03,4.6244e-05
7.9500e+03,4.6994e-05
7.9600e+03,4.7859e-05
7.9700e+03,4.8745e-05
7.9800e+03,4.9509e-05
7.9900e+03,5.0032e-05
8.0000e+03,5.0274e-05
8.0100e+03,5.0273e-05
8.0200e+03,5.0110e-05
8.0300e+03,4.9875e-05
8.0400e+03,4.9637e-05
8.0500e+03,4.9427e-05
8.0600e+03,4.9243e-05
8.0700e+03,4.9073e-05
8.0800e+03,4.8909e-05
8.0900e+03,4.8766e-05
8.1000e+03,4.8668e-05
8.1100e+03,4.8648e-05
8.1200e+03,4.8742e-05
8.1300e+03,4.8986e-05
8.1400e+03,4.9399e-05
8.1500e+03,4.9971e-05
8.1600e+03,5.0668e-05
8.1700e+03,5.1448e-05
8.1800e+03,5.2260e-05
8.1900e+03,5.3052e-05
8.2000e+03,5.3791e-05
8.2100e+03,5.4452e-05
8.2200e+03,5.5011e-05
8.2300e+03,5.5428e-05
8.2400e+03,5.5649e-05
8.2500e+03,5.5615e-05
8.2600e+03,5.5293e-05
8.2700e+03,5.4710e-05
8.2800e+03,5.3944e-05
8.2900e+03,5.3100e-05
8.3000e+03,5.2273e-05
8.3100e+03,5.1527e-05
8.3200e+03,5.0880e-05
8.3300e+03,5.0321e-05
8.3400e+03,4.9845e-05
8.3500e+03,4.9461e-05
8.3600e+03,4.9170e-05
8.3700e+03,4.8938e-05
8.3800e+03,4.8701e-05
8.3900e+03,4.8380e-05
8.4000e+03,4.7918e-05
8.4100e+03,4.7305e-05
8.4200e+03,4.6601e-05
8.4300e+03,4.5920e-05
8.4400e+03,4.5392e-05
8.4500e+03,4.5095e-05
8.4600e+03,4.5047e-05
8.4700e+03,4.5227e-05
8.4800e+03,4.5613e-05
8.4900e+03,4.6175e-05
8.5000e+03,4.6861e-05
8.5100e+03,4.7606e-05
8.5200e+03,4.8351e-05
8.5300e+03,4.9049e-05
8.5400e+03,4.9670e-05
8.5500e+03,5.0203e-05
8.5600e+03,5.0636e-05
8.5700e+03,5.0940e-05
8.5800e+03,5.1068e-05
8.5900e+03,5.0998e-05
8.6000e+03,5.0770e-05
8.6100e+03,5.0448e-05
8.6200e+03,5.0064e-05
8.6300e+03,4.9607e-05
8.6400e+03,4.9034e-05
8.6500e+03,4.8292e-05
8.6600e+03,4.7362e-05
8.6700e+03,4.6294e-05
8.6800e+03,4.5214e-05
8.6900e+03,4.4284e-05
8.7000e+03,4.3636e-05
8.7100e+03,4.3336e-05
8.7200e+03,4.3372e-05
8.7300e+03,4.3708e-05
8.7400e+03,4.4310e-05
8.7500e+03,4.5107e-05
8.7600e+03,4.5982e-05
8.7700e+03,4.6783e-05
8.7800e+03,4.7324e-05
8.7900e+03,4.7392e-05
8.8000e+03,4.6814e-05
8.8100e+03,4.5572e-05
8.8200e+03,4.3859e-05
8.8300e+03,4.1978e-05
8.8400e+03,4.0175e-05
8.8500e+03,3.8574e-05
8.8600e+03,3.7201e-05
8.8700e+03,3.6039e-05
8.8800e+03,3.5115e-05
8.8900e+03,3.4542e-05
8.9000e+03,3.4428e-05
8.9100e+03,3.4767e-05
8.9200e+03,3.5423e-05
8.9300e+03,3.6226e-05
8.9400e+03,3.7050e-05
8.9500e+03,3.7800e-05
8.9600e+03,3.8400e-05
8.9700e+03,3.8848e-05
8.9800e+03,3.9225e-05
8.9900e+03,3.9583e-05
9.0000e+03,3.9890e-05
9.0100e+03,4.0078e-05
9.0200e+03,4.0137e-05
9.0300e+03,4.0121e-05
9.0400e+03,4.0100e-05
9.0500e+03,4.0105e-05
9.0600e+03,4.0142e-05
9.0700e+03,4.0211e-05
