# Time , Side-Flux
0.0000e+00,0.0000e+00
1.0000e+01,4.0408e-09
2.0000e+01,8.0666e-09
3.0000e+01,1.2063e-08
4.0000e+01,1.6015e-08
5.0000e+01,1.9910e-08
6.0000e+01,2.3734e-08
7.0000e+01,2.7476e-08
8.0000e+01,3.1126e-08
9.0000e+01,3.4674e-08
1.0000e+02,3.8113e-08
1.1000e+02,4.1435e-08
1.2000e+02,4.4635e-08
1.3000e+02,4.7710e-08
1.4000e+02,5.0657e-08
1.5000e+02,5.3475e-08
1.6000e+02,5.6163e-08
1.7000e+02,5.8722e-08
1.8000e+02,6.1154e-08
1.9000e+02,6.3461e-08
2.0000e+02,6.5647e-08
2.1000e+02,6.7716e-08
2.2000e+02,6.9670e-08
2.3000e+02,7.1515e-08
2.4000e+02,7.3256e-08
2.5000e+02,7.4896e-08
2.6000e+02,7.6442e-08
2.7000e+02,7.7898e-08
2.8000e+02,7.9268e-08
2.9000e+02,8.0558e-08
3.0000e+02,8.1772e-08
3.1000e+02,8.2914e-08
3.2000e+02,8.3989e-08
3.3000e+02,8.5000e-08
3.4000e+02,8.5952e-08
3.5000e+02,8.6849e-08
3.6000e+02,8.7693e-08
3.7000e+02,8.8488e-08
3.8000e+02,8.9238e-08
3.9000e+02,8.9945e-08
4.0000e+02,9.0611e-08
4.1000e+02,9.1241e-08
4.2000e+02,9.1835e-08
4.3000e+02,9.2396e-08
4.4000e+02,9.2928e-08
4.5000e+02,9.3431e-08
4.6000e+02,9.3907e-08
4.7000e+02,9.4360e-08
4.8000e+02,9.4789e-08
4.9000e+02,9.5198e-08
5.0000e+02,9.5587e-08
5.1000e+02,9.5958e-08
5.2000e+02,9.6312e-08
5.3000e+02,9.6652e-08
5.4000e+02,9.6977e-08
5.5000e+02,9.7289e-08
5.6000e+02,9.7589e-08
5.7000e+02,9.7878e-08
5.8000e+02,9.8158e-08
5.9000e+02,9.8428e-08
6.0000e+02,9.8690e-08
6.1000e+02,9.8944e-08
6.2000e+02,9.9191e-08
6.3000e+02,9.9431e-08
6.4000e+02,9.9666e-08
6.5000e+02,9.9895e-08
6.6000e+02,1.0012e-07
6.7000e+02,1.0034e-07
6.8000e+02,1.0055e-07
6.9000e+02,1.0076e-07
7.0000e+02,1.0097e-07
7.1000e+02,1.0117e-07
7.2000e+02,1.0137e-07
7.3000e+02,1.0157e-07
7.4000e+02,1.0176e-07
7.5000e+02,1.0195e-07
7.6000e+02,1.0214e-07
7.7000e+02,1.0232e-07
7.8000e+02,1.0250e-07
7.9000e+02,1.0268e-07
8.0000e+02,1.0285e-07
8.1000e+02,1.0302e-07
8.2000e+02,1.0318e-07
8.3000e+02,1.0334e-07
8.4000e+02,1.0350e-07
8.5000e+02,1.0365e-07
8.6000e+02,1.0380e-07
8.7000e+02,1.0394e-07
8.8000e+02,1.0408e-07
8.9000e+02,1.0421e-07
9.0000e+02,1.0434e-07
9.1000e+02,1.0446e-07
9.2000e+02,1.0457e-07
9.3000e+02,1.0468e-07
9.4000e+02,1.0478e-07
9.5000e+02,1.0488e-07
9.6000e+02,1.0497e-07
9.7000e+02,1.0506e-07
9.8000e+02,1.0515e-07
9.9000e+02,1.0523e-07
1.0000e+03,1.0532e-07
1.0100e+03,1.0540e-07
1.0200e+03,1.0547e-07
1.0300e+03,1.0555e-07
1.0400e+03,1.0564e-07
1.0500e+03,1.0572e-07
1.0600e+03,1.0581e-07
1.0700e+03,1.0590e-07
1.0800e+03,1.0599e-07
1.0900e+03,1.0610e-07
1.1000e+03,1.0620e-07
1.1100e+03,1.0632e-07
1.1200e+03,1.0644e-07
1.1300e+03,1.0656e-07
1.1400e+03,1.0670e-07
1.1500e+03,1.0684e-07
1.1600e+03,1.0699e-07
1.1700e+03,1.0714e-07
1.1800e+03,1.0730e-07
1.1900e+03,1.0746e-07
1.2000e+03,1.0763e-07
1.2100e+03,1.0780e-07
1.2200e+03,1.0798e-07
1.2300e+03,1.0815e-07
1.2400e+03,1.0833e-07
1.2500e+03,1.0851e-07
1.2600e+03,1.0869e-07
1.2700e+03,1.0886e-07
1.2800e+03,1.0903e-07
1.2900e+03,1.0920e-07
1.3000e+03,1.0936e-07
1.3100e+03,1.0952e-07
1.3200e+03,1.0967e-07
1.3300e+03,1.0982e-07
1.3400e+03,1.0995e-07
1.3500e+03,1.1008e-07
1.3600e+03,1.1021e-07
1.3700e+03,1.1032e-07
1.3800e+03,1.1042e-07
1.3900e+03,1.1052e-07
1.4000e+03,1.1061e-07
1.4100e+03,1.1068e-07
1.4200e+03,1.1075e-07
1.4300e+03,1.1081e-07
1.4400e+03,1.1086e-07
1.4500e+03,1.1090e-07
1.4600e+03,1.1093e-07
1.4700e+03,1.1096e-07
1.4800e+03,1.1097e-07
1.4900e+03,1.1098e-07
1.5000e+03,1.1098e-07
1.5100e+03,1.1097e-07
1.5200e+03,1.1095e-07
1.5300e+03,1.1093e-07
1.5400e+03,1.1089e-07
1.5500e+03,1.1086e-07
1.5600e+03,1.1081e-07
1.5700e+03,1.1076e-07
1.5800e+03,1.1071e-07
1.5900e+03,1.1065e-07
1.6000e+03,1.1058e-07
1.6100e+03,1.1051e-07
1.6200e+03,1.1044e-07
1.6300e+03,1.1036e-07
1.6400e+03,1.1027e-07
1.6500e+03,1.1019e-07
1.6600e+03,1.1009e-07
1.6700e+03,1.1000e-07
1.6800e+03,1.0991e-07
1.6900e+03,1.0981e-07
1.7000e+03,1.0971e-07
1.7100e+03,1.0961e-07
1.7200e+03,1.0950e-07
1.7300e+03,1.0940e-07
1.7400e+03,1.0929e-07
1.7500e+03,1.0919e-07
1.7600e+03,1.0909e-07
1.7700e+03,1.0898e-07
1.7800e+03,1.0888e-07
1.7900e+03,1.0878e-07
1.8000e+03,1.0868e-07
1.8100e+03,1.0858e-07
1.8200e+03,1.0848e-07
1.8300e+03,1.0839e-07
1.8400e+03,1.0829e-07
1.8500e+03,1.0820e-07
1.8600e+03,1.0811e-07
1.8700e+03,1.0802e-07
1.8800e+03,1.0794e-07
1.8900e+03,1.0786e-07
1.9000e+03,1.0777e-07
1.9100e+03,1.0769e-07
1.9200e+03,1.0761e-07
1.9300e+03,1.0753e-07
1.9400e+03,1.0745e-07
1.9500e+03,1.0737e-07
1.9600e+03,1.0729e-07
1.9700e+03,1.0721e-07
1.9800e+03,1.0713e-07
1.9900e+03,1.0705e-07
2.0000e+03,1.0697e-07
2.0100e+03,1.0689e-07
2.0200e+03,1.0680e-07
2.0300e+03,1.0672e-07
2.0400e+03,1.0664e-07
2.0500e+03,1.0655e-07
2.0600e+03,1.0647e-07
2.0700e+03,1.0638e-07
2.0800e+03,1.0630e-07
2.0900e+03,1.0622e-07
2.1000e+03,1.0615e-07
2.1100e+03,1.0607e-07
2.1200e+03,1.0601e-07
2.1300e+03,1.0594e-07
2.1400e+03,1.0589e-07
2.1500e+03,1.0584e-07
2.1600e+03,1.0580e-07
2.1700e+03,1.0576e-07
2.1800e+03,1.0574e-07
2.1900e+03,1.0572e-07
2.2000e+03,1.0572e-07
2.2100e+03,1.0573e-07
2.2200e+03,1.0574e-07
2.2300e+03,1.0577e-07
2.2400e+03,1.0581e-07
2.2500e+03,1.0585e-07
2.2600e+03,1.0591e-07
2.2700e+03,1.0597e-07
2.2800e+03,1.0605e-07
2.2900e+03,1.0613e-07
2.3000e+03,1.0622e-07
2.3100e+03,1.0631e-07
2.3200e+03,1.0641e-07
2.3300e+03,1.0651e-07
2.3400e+03,1.0662e-07
2.3500e+03,1.0672e-07
2.3600e+03,1.0683e-07
2.3700e+03,1.0694e-07
2.3800e+03,1.0705e-07
2.3900e+03,1.0716e-07
2.4000e+03,1.0726e-07
2.4100e+03,1.0737e-07
2.4200e+03,1.0746e-07
2.4300e+03,1.0756e-07
2.4400e+03,1.0765e-07
2.4500e+03,1.0774e-07
2.4600e+03,1.0782e-07
2.4700e+03,1.0790e-07
2.4800e+03,1.0797e-07
2.4900e+03,1.0804e-07
2.5000e+03,1.0810e-07
2.5100e+03,1.0815e-07
2.5200e+03,1.0820e-07
2.5300e+03,1.0825e-07
2.5400e+03,1.0829e-07
2.5500e+03,1.0832e-07
2.5600e+03,1.0836e-07
2.5700e+03,1.0838e-07
2.5800e+03,1.0840e-07
2.5900e+03,1.0842e-07
2.6000e+03,1.0843e-07
2.6100e+03,1.0844e-07
2.6200e+03,1.0845e-07
2.6300e+03,1.0845e-07
2.6400e+03,1.0845e-07
2.6500e+03,1.0845e-07
2.6600e+03,1.0845e-07
2.6700e+03,1.0844e-07
2.6800e+03,1.0843e-07
2.6900e+03,1.0842e-07
2.7000e+03,1.0841e-07
2.7100e+03,1.0840e-07
2.7200e+03,1.0839e-07
2.7300e+03,1.0838e-07
2.7400e+03,1.0837e-07
2.7500e+03,1.0836e-07
2.7600e+03,1.0835e-07
2.7700e+03,1.0833e-07
2.7800e+03,1.0832e-07
2.7900e+03,1.0831e-07
2.8000e+03,1.0830e-07
2.8100e+03,1.0829e-07
2.8200e+03,1.0828e-07
2.8300e+03,1.0827e-07
2.8400e+03,1.0826e-07
2.8500e+03,1.0825e-07
2.8600e+03,1.0825e-07
2.8700e+03,1.0824e-07
2.8800e+03,1.0824e-07
2.8900e+03,1.0823e-07
2.9000e+03,1.0824e-07
2.9100e+03,1.0824e-07
2.9200e+03,1.0825e-07
2.9300e+03,1.0826e-07
2.9400e+03,1.0827e-07
2.9500e+03,1.0829e-07
2.9600e+03,1.0832e-07
2.9700e+03,1.0835e-07
2.9800e+03,1.0839e-07
2.9900e+03,1.0843e-07
3.0000e+03,1.0848e-07
3.0100e+03,1.0854e-07
3.0200e+03,1.0861e-07
3.0300e+03,1.0869e-07
3.0400e+03,1.0878e-07
3.0500e+03,1.0887e-07
3.0600e+03,1.0897e-07
3.0700e+03,1.0908e-07
3.0800e+03,1.0920e-07
3.0900e+03,1.0932e-07
3.1000e+03,1.0945e-07
3.1100e+03,1.0959e-07
3.1200e+03,1.0972e-07
3.1300e+03,1.0986e-07
3.1400e+03,1.1000e-07
3.1500e+03,1.1014e-07
3.1600e+03,1.1028e-07
3.1700e+03,1.1042e-07
3.1800e+03,1.1056e-07
3.1900e+03,1.1069e-07
3.2000e+03,1.1081e-07
3.2100e+03,1.1093e-07
3.2200e+03,1.1104e-07
3.2300e+03,1.1115e-07
3.2400e+03,1.1125e-07
3.2500e+03,1.1134e-07
3.2600e+03,1.1143e-07
3.2700e+03,1.1150e-07
3.2800e+03,1.1157e-07
3.2900e+03,1.1164e-07
3.3000e+03,1.1169e-07
3.3100e+03,1.1175e-07
3.3200e+03,1.1179e-07
3.3300e+03,1.1183e-07
3.3400e+03,1.1187e-07
3.3500e+03,1.1191e-07
3.3600e+03,1.1194e-07
3.3700e+03,1.1197e-07
3.3800e+03,1.1199e-07
3.3900e+03,1.1202e-07
3.4000e+03,1.1204e-07
3.4100e+03,1.1207e-07
3.4200e+03,1.1209e-07
3.4300e+03,1.1212e-07
3.4400e+03,1.1214e-07
3.4500e+03,1.1216e-07
3.4600e+03,1.1219e-07
3.4700e+03,1.1221e-07
3.4800e+03,1.1224e-07
3.4900e+03,1.1227e-07
3.5000e+03,1.1230e-07
3.5100e+03,1.1233e-07
3.5200e+03,1.1236e-07
3.5300e+03,1.1239e-07
3.5400e+03,1.1242e-07
3.5500e+03,1.1245e-07
3.5600e+03,1.1248e-07
3.5700e+03,1.1251e-07
3.5800e+03,1.1254e-07
3.5900e+03,1.1257e-07
3.6000e+03,1.1260e-07
3.6100e+03,1.1263e-07
3.6200e+03,1.1266e-07
3.6300e+03,1.1269e-07
3.6400e+03,1.1271e-07
3.6500e+03,1.1274e-07
3.6600e+03,1.1276e-07
3.6700e+03,1.1278e-07
3.6800e+03,1.1279e-07
3.6900e+03,1.1281e-07
3.7000e+03,1.1282e-07
3.7100e+03,1.1283e-07
3.7200e+03,1.1284e-07
3.7300e+03,1.1284e-07
3.7400e+03,1.1284e-07
3.7500e+03,1.1284e-07
3.7600e+03,1.1284e-07
3.7700e+03,1.1283e-07
3.7800e+03,1.1282e-07
3.7900e+03,1.1281e-07
3.8000e+03,1.1279e-07
3.8100e+03,1.1277e-07
3.8200e+03,1.1276e-07
3.8300e+03,1.1273e-07
3.8400e+03,1.1271e-07
3.8500e+03,1.1269e-07
3.8600e+03,1.1266e-07
3.8700e+03,1.1264e-07
3.8800e+03,1.1261e-07
3.8900e+03,1.1258e-07
3.9000e+03,1.1255e-07
3.9100e+03,1.1252e-07
3.9200e+03,1.1249e-07
3.9300e+03,1.1246e-07
3.9400e+03,1.1244e-07
3.9500e+03,1.1241e-07
3.9600e+03,1.1238e-07
3.9700e+03,1.1235e-07
3.9800e+03,1.1232e-07
3.9900e+03,1.1230e-07
4.0000e+03,1.1227e-07
4.0100e+03,1.1224e-07
4.0200e+03,1.1222e-07
4.0300e+03,1.1220e-07
4.0400e+03,1.1217e-07
4.0500e+03,1.1215e-07
4.0600e+03,1.1213e-07
4.0700e+03,1.1211e-07
4.0800e+03,1.1209e-07
4.0900e+03,1.1207e-07
4.1000e+03,1.1205e-07
4.1100e+03,1.1203e-07
4.1200e+03,1.1202e-07
4.1300e+03,1.1200e-07
4.1400e+03,1.1199e-07
4.1500e+03,1.1197e-07
4.1600e+03,1.1196e-07
4.1700e+03,1.1195e-07
4.1800e+03,1.1194e-07
4.1900e+03,1.1193e-07
4.2000e+03,1.1192e-07
4.2100e+03,1.1191e-07
4.2200e+03,1.1191e-07
4.2300e+03,1.1190e-07
4.2400e+03,1.1190e-07
4.2500e+03,1.1190e-07
4.2600e+03,1.1190e-07
4.2700e+03,1.1189e-07
4.2800e+03,1.1189e-07
4.2900e+03,1.1189e-07
4.3000e+03,1.1189e-07
4.3100e+03,1.1189e-07
4.3200e+03,1.1189e-07
4.3300e+03,1.1190e-07
4.3400e+03,1.1190e-07
4.3500e+03,1.1190e-07
4.3600e+03,1.1190e-07
4.3700e+03,1.1190e-07
4.3800e+03,1.1190e-07
4.3900e+03,1.1190e-07
4.4000e+03,1.1190e-07
4.4100e+03,1.1190e-07
4.4200e+03,1.1190e-07
4.4300e+03,1.1190e-07
4.4400e+03,1.1190e-07
4.4500e+03,1.1190e-07
4.4600e+03,1.1190e-07
4.4700e+03,1.1190e-07
4.4800e+03,1.1190e-07
4.4900e+03,1.1190e-07
4.5000e+03,1.1190e-07
4.5100e+03,1.1190e-07
4.5200e+03,1.1190e-07
4.5300e+03,1.1190e-07
4.5400e+03,1.1190e-07
4.5500e+03,1.1190e-07
4.5600e+03,1.1190e-07
4.5700e+03,1.1190e-07
4.5800e+03,1.1190e-07
4.5900e+03,1.1191e-07
4.6000e+03,1.1191e-07
4.6100e+03,1.1191e-07
4.6200e+03,1.1191e-07
4.6300e+03,1.1191e-07
4.6400e+03,1.1192e-07
4.6500e+03,1.1192e-07
4.6600e+03,1.1192e-07
4.6700e+03,1.1192e-07
4.6800e+03,1.1192e-07
4.6900e+03,1.1191e-07
4.7000e+03,1.1191e-07
4.7100e+03,1.1191e-07
4.7200e+03,1.1190e-07
4.7300e+03,1.1190e-07
4.7400e+03,1.1189e-07
4.7500e+03,1.1188e-07
4.7600e+03,1.1187e-07
4.7700e+03,1.1186e-07
4.7800e+03,1.1185e-07
4.7900e+03,1.1183e-07
4.8000e+03,1.1182e-07
4.8100e+03,1.1180e-07
4.8200e+03,1.1178e-07
4.8300e+03,1.1176e-07
4.8400e+03,1.1174e-07
4.8500e+03,1.1172e-07
4.8600e+03,1.1170e-07
4.8700e+03,1.1167e-07
4.8800e+03,1.1165e-07
4.8900e+03,1.1162e-07
4.9000e+03,1.1160e-07
4.9100e+03,1.1157e-07
4.9200e+03,1.1154e-07
4.9300e+03,1.1152e-07
4.9400e+03,1.1149e-07
4.9500e+03,1.1147e-07
4.9600e+03,1.1144e-07
4.9700e+03,1.1141e-07
4.9800e+03,1.1139e-07
4.9900e+03,1.1136e-07
5.0000e+03,1.1134e-07
5.0100e+03,1.1131e-07
5.0200e+03,1.1129e-07
5.0300e+03,1.1126e-07
5.0400e+03,1.1124e-07
5.0500e+03,1.1122e-07
5.0600e+03,1.1119e-07
5.0700e+03,1.1117e-07
5.0800e+03,1.1114e-07
5.0900e+03,1.1111e-07
5.1000e+03,1.1109e-07
5.1100e+03,1.1106e-07
5.1200e+03,1.1104e-07
5.1300e+03,1.1101e-07
5.1400e+03,1.1099e-07
5.1500e+03,1.1097e-07
5.1600e+03,1.1095e-07
5.1700e+03,1.1093e-07
5.1800e+03,1.1091e-07
5.1900e+03,1.1090e-07
5.2000e+03,1.1090e-07
5.2100e+03,1.1090e-07
5.2200e+03,1.1090e-07
5.2300e+03,1.1092e-07
5.2400e+03,1.1094e-07
5.2500e+03,1.1097e-07
5.2600e+03,1.1100e-07
5.2700e+03,1.1105e-07
5.2800e+03,1.1110e-07
5.2900e+03,1.1116e-07
5.3000e+03,1.1123e-07
5.3100e+03,1.1131e-07
5.3200e+03,1.1139e-07
5.3300e+03,1.1148e-07
5.3400e+03,1.1157e-07
5.3500e+03,1.1167e-07
5.3600e+03,1.1177e-07
5.3700e+03,1.1188e-07
5.3800e+03,1.1198e-07
5.3900e+03,1.1209e-07
5.4000e+03,1.1219e-07
5.4100e+03,1.1229e-07
5.4200e+03,1.1239e-07
5.4300e+03,1.1248e-07
5.4400e+03,1.1257e-07
5.4500e+03,1.1265e-07
5.4600e+03,1.1273e-07
5.4700e+03,1.1280e-07
5.4800e+03,1.1286e-07
5.4900e+03,1.1292e-07
5.5000e+03,1.1297e-07
5.5100e+03,1.1302e-07
5.5200e+03,1.1305e-07
5.5300e+03,1.1309e-07
5.5400e+03,1.1312e-07
5.5500e+03,1.1314e-07
5.5600e+03,1.1316e-07
5.5700e+03,1.1317e-07
5.5800e+03,1.1318e-07
5.5900e+03,1.1319e-07
5.6000e+03,1.1320e-07
5.6100e+03,1.1320e-07
5.6200e+03,1.1320e-07
5.6300e+03,1.1320e-07
5.6400e+03,1.1320e-07
5.6500e+03,1.1320e-07
5.6600e+03,1.1319e-07
5.6700e+03,1.1318e-07
5.6800e+03,1.1318e-07
5.6900e+03,1.1317e-07
5.7000e+03,1.1316e-07
5.7100e+03,1.1315e-07
5.7200e+03,1.1313e-07
5.7300e+03,1.1312e-07
5.7400e+03,1.1311e-07
5.7500e+03,1.1309e-07
5.7600e+03,1.1307e-07
5.7700e+03,1.1305e-07
5.7800e+03,1.1303e-07
5.7900e+03,1.1301e-07
5.8000e+03,1.1298e-07
5.8100e+03,1.1295e-07
5.8200e+03,1.1292e-07
5.8300e+03,1.1289e-07
5.8400e+03,1.1286e-07
5.8500e+03,1.1282e-07
5.8600e+03,1.1279e-07
5.8700e+03,1.1275e-07
5.8800e+03,1.1272e-07
5.8900e+03,1.1268e-07
5.9000e+03,1.1264e-07
5.9100e+03,1.1261e-07
5.9200e+03,1.1258e-07
5.9300e+03,1.1255e-07
5.9400e+03,1.1253e-07
5.9500e+03,1.1251e-07
5.9600e+03,1.1249e-07
5.9700e+03,1.1248e-07
5.9800e+03,1.1247e-07
5.9900e+03,1.1247e-07
6.0000e+03,1.1248e-07
6.0100e+03,1.1249e-07
6.0200e+03,1.1250e-07
6.0300e+03,1.1253e-07
6.0400e+03,1.1255e-07
6.0500e+03,1.1258e-07
6.0600e+03,1.1261e-07
6.0700e+03,1.1264e-07
6.0800e+03,1.1268e-07
6.0900e+03,1.1271e-07
6.1000e+03,1.1275e-07
6.1100e+03,1.1278e-07
6.1200e+03,1.1281e-07
6.1300e+03,1.1283e-07
6.1400e+03,1.1285e-07
6.1500e+03,1.1287e-07
6.1600e+03,1.1287e-07
6.1700e+03,1.1288e-07
6.1800e+03,1.1287e-07
6.1900e+03,1.1286e-07
6.2000e+03,1.1284e-07
6.2100e+03,1.1281e-07
6.2200e+03,1.1278e-07
6.2300e+03,1.1274e-07
6.2400e+03,1.1270e-07
6.2500e+03,1.1265e-07
6.2600e+03,1.1260e-07
6.2700e+03,1.1254e-07
6.2800e+03,1.1249e-07
6.2900e+03,1.1243e-07
6.3000e+03,1.1237e-07
6.3100e+03,1.1231e-07
6.3200e+03,1.1225e-07
6.3300e+03,1.1219e-07
6.3400e+03,1.1214e-07
6.3500e+03,1.1209e-07
6.3600e+03,1.1204e-07
6.3700e+03,1.1200e-07
6.3800e+03,1.1196e-07
6.3900e+03,1.1192e-07
6.4000e+03,1.1189e-07
6.4100e+03,1.1187e-07
6.4200e+03,1.1185e-07
6.4300e+03,1.1183e-07
6.4400e+03,1.1182e-07
6.4500e+03,1.1181e-07
6.4600e+03,1.1180e-07
6.4700e+03,1.1180e-07
6.4800e+03,1.1180e-07
6.4900e+03,1.1180e-07
6.5000e+03,1.1180e-07
6.5100e+03,1.1180e-07
6.5200e+03,1.1180e-07
6.5300e+03,1.1180e-07
6.5400e+03,1.1179e-07
6.5500e+03,1.1179e-07
6.5600e+03,1.1178e-07
6.5700e+03,1.1177e-07
6.5800e+03,1.1175e-07
6.5900e+03,1.1173e-07
6.6000e+03,1.1171e-07
6.6100e+03,1.1168e-07
6.6200e+03,1.1165e-07
6.6300e+03,1.1161e-07
6.6400e+03,1.1157e-07
6.6500e+03,1.1152e-07
6.6600e+03,1.1147e-07
6.6700e+03,1.1142e-07
6.6800e+03,1.1136e-07
6.6900e+03,1.1129e-07
6.7000e+03,1.1122e-07
6.7100e+03,1.1115e-07
6.7200e+03,1.1108e-07
6.7300e+03,1.1100e-07
6.7400e+03,1.1092e-07
6.7500e+03,1.1083e-07
6.7600e+03,1.1075e-07
6.7700e+03,1.1066e-07
6.7800e+03,1.1057e-07
6.7900e+03,1.1048e-07
6.8000e+03,1.1039e-07
6.8100e+03,1.1031e-07
6.8200e+03,1.1022e-07
6.8300e+03,1.1014e-07
6.8400e+03,1.1006e-07
6.8500e+03,1.0999e-07
6.8600e+03,1.0992e-07
6.8700e+03,1.0986e-07
6.8800e+03,1.0980e-07
6.8900e+03,1.0976e-07
6.9000e+03,1.0972e-07
6.9100e+03,1.0969e-07
6.9200e+03,1.0968e-07
6.9300e+03,1.0967e-07
6.9400e+03,1.0968e-07
6.9500e+03,1.0970e-07
6.9600e+03,1.0973e-07
6.9700e+03,1.0977e-07
6.9800e+03,1.0982e-07
6.9900e+03,1.0989e-07
7.0000e+03,1.0997e-07
7.0100e+03,1.1006e-07
7.0200e+03,1.1015e-07
7.0300e+03,1.1026e-07
7.0400e+03,1.1037e-07
7.0500e+03,1.1050e-07
7.0600e+03,1.1062e-07
7.0700e+03,1.1076e-07
7.0800e+03,1.1089e-07
7.0900e+03,1.1103e-07
7.1000e+03,1.1117e-07
7.1100e+03,1.1131e-07
7.1200e+03,1.1144e-07
7.1300e+03,1.1158e-07
7.1400e+03,1.1171e-07
7.1500e+03,1.1184e-07
7.1600e+03,1.1196e-07
7.1700e+03,1.1207e-07
7.1800e+03,1.1218e-07
7.1900e+03,1.1228e-07
7.2000e+03,1.1237e-07
7.2100e+03,1.1245e-07
7.2200e+03,1.1252e-07
7.2300e+03,1.1258e-07
7.2400e+03,1.1263e-07
7.2500e+03,1.1267e-07
7.2600e+03,1.1270e-07
7.2700e+03,1.1272e-07
7.2800e+03,1.1273e-07
7.2900e+03,1.1273e-07
7.3000e+03,1.1272e-07
7.3100e+03,1.1269e-07
7.3200e+03,1.1266e-07
7.3300e+03,1.1262e-07
7.3400e+03,1.1257e-07
7.3500e+03,1.1251e-07
7.3600e+03,1.1244e-07
7.3700e+03,1.1237e-07
7.3800e+03,1.1229e-07
7.3900e+03,1.1220e-07
7.4000e+03,1.1210e-07
7.4100e+03,1.1200e-07
7.4200e+03,1.1189e-07
7.4300e+03,1.1177e-07
7.4400e+03,1.1166e-07
7.4500e+03,1.1153e-07
7.4600e+03,1.1141e-07
7.4700e+03,1.1128e-07
7.4800e+03,1.1115e-07
7.4900e+03,1.1102e-07
7.5000e+03,1.1089e-07
7.5100e+03,1.1075e-07
7.5200e+03,1.1062e-07
7.5300e+03,1.1049e-07
7.5400e+03,1.1036e-07
7.5500e+03,1.1023e-07
7.5600e+03,1.1010e-07
7.5700e+03,1.0997e-07
7.5800e+03,1.0985e-07
7.5900e+03,1.0973e-07
7.6000e+03,1.0962e-07
7.6100e+03,1.0951e-07
7.6200e+03,1.0940e-07
7.6300e+03,1.0930e-07
7.6400e+03,1.0920e-07
7.6500e+03,1.0910e-07
7.6600e+03,1.0901e-07
7.6700e+03,1.0892e-07
7.6800e+03,1.0884e-07
7.6900e+03,1.0876e-07
7.7000e+03,1.0869e-07
7.7100e+03,1.0861e-07
7.7200e+03,1.0854e-07
7.7300e+03,1.0848e-07
7.7400e+03,1.0841e-07
7.7500e+03,1.0835e-07
7.7600e+03,1.0829e-07
7.7700e+03,1.0824e-07
7.7800e+03,1.0818e-07
7.7900e+03,1.0813e-07
7.8000e+03,1.0808e-07
7.8100e+03,1.0803e-07
7.8200e+03,1.0799e-07
7.8300e+03,1.0795e-07
7.8400e+03,1.0791e-07
7.8500e+03,1.0788e-07
7.8600e+03,1.0784e-07
7.8700e+03,1.0782e-07
7.8800e+03,1.0779e-07
7.8900e+03,1.0777e-07
7.9000e+03,1.0776e-07
7.9100e+03,1.0775e-07
7.9200e+03,1.0775e-07
7.9300e+03,1.0775e-07
7.9400e+03,1.0776e-07
7.9500e+03,1.0777e-07
7.9600e+03,1.0779e-07
7.9700e+03,1.0782e-07
7.9800e+03,1.0785e-07
7.9900e+03,1.0788e-07
8.0000e+03,1.0793e-07
8.0100e+03,1.0797e-07
8.0200e+03,1.0802e-07
8.0300e+03,1.0807e-07
8.0400e+03,1.0813e-07
8.0500e+03,1.0819e-07
8.0600e+03,1.0825e-07
8.0700e+03,1.0830e-07
8.0800e+03,1.0836e-07
8.0900e+03,1.0842e-07
8.1000e+03,1.0847e-07
8.1100e+03,1.0852e-07
8.1200e+03,1.0856e-07
8.1300e+03,1.0859e-07
8.1400e+03,1.0862e-07
8.1500e+03,1.0864e-07
8.1600e+03,1.0864e-07
8.1700e+03,1.0864e-07
8.1800e+03,1.0863e-07
8.1900e+03,1.0860e-07
8.2000e+03,1.0856e-07
8.2100e+03,1.0850e-07
8.2200e+03,1.0843e-07
8.2300e+03,1.0835e-07
8.2400e+03,1.0825e-07
8.2500e+03,1.0814e-07
8.2600e+03,1.0801e-07
8.2700e+03,1.0787e-07
8.2800e+03,1.0772e-07
8.2900e+03,1.0755e-07
8.3000e+03,1.0737e-07
8.3100e+03,1.0717e-07
8.3200e+03,1.0697e-07
8.3300e+03,1.0676e-07
8.3400e+03,1.0654e-07
8.3500e+03,1.0632e-07
8.3600e+03,1.0609e-07
8.3700e+03,1.0585e-07
8.3800e+03,1.0562e-07
8.3900e+03,1.0538e-07
8.4000e+03,1.0515e-07
8.4100e+03,1.0492e-07
8.4200e+03,1.0470e-07
8.4300e+03,1.0448e-07
8.4400e+03,1.0427e-07
8.4500e+03,1.0407e-07
8.4600e+03,1.0388e-07
8.4700e+03,1.0370e-07
8.4800e+03,1.0353e-07
8.4900e+03,1.0338e-07
8.5000e+03,1.0323e-07
8.5100e+03,1.0310e-07
8.5200e+03,1.0299e-07
8.5300e+03,1.0288e-07
8.5400e+03,1.0280e-07
8.5500e+03,1.0272e-07
8.5600e+03,1.0266e-07
8.5700e+03,1.0261e-07
8.5800e+03,1.0258e-07
8.5900e+03,1.0256e-07
8.6000e+03,1.0255e-07
8.6100e+03,1.0256e-07
8.6200e+03,1.0258e-07
8.6300e+03,1.0261e-07
8.6400e+03,1.0265e-07
8.6500e+03,1.0271e-07
8.6600e+03,1.0278e-07
8.6700e+03,1.0286e-07
8.6800e+03,1.0295e-07
8.6900e+03,1.0306e-07
8.7000e+03,1.0318e-07
8.7100e+03,1.0331e-07
8.7200e+03,1.0346e-07
8.7300e+03,1.0361e-07
8.7400e+03,1.0378e-07
8.7500e+03,1.0397e-07
8.7600e+03,1.0417e-07
8.7700e+03,1.0438e-07
8.7800e+03,1.0461e-07
8.7900e+03,1.0486e-07
8.8000e+03,1.0512e-07
8.8100e+03,1.0540e-07
8.8200e+03,1.0570e-07
8.8300e+03,1.0601e-07
8.8400e+03,1.0634e-07
8.8500e+03,1.0669e-07
8.8600e+03,1.0706e-07
8.8700e+03,1.0744e-07
8.8800e+03,1.0784e-07
8.8900e+03,1.0826e-07
8.9000e+03,1.0869e-07
8.9100e+03,1.0914e-07
8.9200e+03,1.0961e-07
8.9300e+03,1.1008e-07
8.9400e+03,1.1057e-07
8.9500e+03,1.1107e-07
8.9600e+03,1.1158e-07
8.9700e+03,1.1209e-07
8.9800e+03,1.1261e-07
8.9900e+03,1.1313e-07
9.0000e+03,1.1365e-07
9.0100e+03,1.1417e-07
9.0200e+03,1.1468e-07
9.0300e+03,1.1519e-07
9.0400e+03,1.1570e-07
9.0500e+03,1.1619e-07
9.0600e+03,1.1667e-07
9.0700e+03,1.1714e-07
