# Time , Side-Flux
0.0000e+00,0.0000e+00
1.0000e+01,4.3298e-08
2.0000e+01,8.6271e-08
3.0000e+01,1.2860e-07
4.0000e+01,1.7000e-07
5.0000e+01,2.1019e-07
6.0000e+01,2.4893e-07
7.0000e+01,2.8602e-07
8.0000e+01,3.2129e-07
9.0000e+01,3.5464e-07
1.0000e+02,3.8597e-07
1.1000e+02,4.1525e-07
1.2000e+02,4.4246e-07
1.3000e+02,4.6764e-07
1.4000e+02,4.9083e-07
1.5000e+02,5.1211e-07
1.6000e+02,5.3158e-07
1.7000e+02,5.4932e-07
1.8000e+02,5.6546e-07
1.9000e+02,5.8011e-07
2.0000e+02,5.9338e-07
2.1000e+02,6.0540e-07
2.2000e+02,6.1627e-07
2.3000e+02,6.2610e-07
2.4000e+02,6.3499e-07
2.5000e+02,6.4304e-07
2.6000e+02,6.5032e-07
2.7000e+02,6.5692e-07
2.8000e+02,6.6290e-07
2.9000e+02,6.6834e-07
3.0000e+02,6.7328e-07
3.1000e+02,6.7778e-07
3.2000e+02,6.8189e-07
3.3000e+02,6.8563e-07
3.4000e+02,6.8905e-07
3.5000e+02,6.9217e-07
3.6000e+02,6.9503e-07
3.7000e+02,6.9764e-07
3.8000e+02,7.0004e-07
3.9000e+02,7.0223e-07
4.0000e+02,7.0423e-07
4.1000e+02,7.0607e-07
4.2000e+02,7.0775e-07
4.3000e+02,7.0929e-07
4.4000e+02,7.1069e-07
4.5000e+02,7.1198e-07
4.6000e+02,7.1316e-07
4.7000e+02,7.1424e-07
4.8000e+02,7.1523e-07
4.9000e+02,7.1614e-07
5.0000e+02,7.1698e-07
5.1000e+02,7.1775e-07
5.2000e+02,7.1847e-07
5.3000e+02,7.1914e-07
5.4000e+02,7.1977e-07
5.5000e+02,7.2036e-07
5.6000e+02,7.2092e-07
5.7000e+02,7.2145e-07
5.8000e+02,7.2196e-07
5.9000e+02,7.2246e-07
6.0000e+02,7.2294e-07
6.1000e+02,7.2342e-07
6.2000e+02,7.2388e-07
6.3000e+02,7.2435e-07
6.4000e+02,7.2481e-07
6.5000e+02,7.2527e-07
6.6000e+02,7.2573e-07
6.7000e+02,7.2618e-07
6.8000e+02,7.2664e-07
6.9000e+02,7.2711e-07
7.0000e+02,7.2757e-07
7.1000e+02,7.2803e-07
7.2000e+02,7.2850e-07
7.3000e+02,7.2897e-07
7.4000e+02,7.2945e-07
7.5000e+02,7.2993e-07
7.6000e+02,7.3041e-07
7.7000e+02,7.3090e-07
7.8000e+02,7.3139e-07
7.9000e+02,7.3189e-07
8.0000e+02,7.3239e-07
8.1000e+02,7.3289e-07
8.2000e+02,7.3338e-07
8.3000e+02,7.3386e-07
8.4000e+02,7.3433e-07
8.5000e+02,7.3477e-07
8.6000e+02,7.3517e-07
8.7000e+02,7.3554e-07
8.8000e+02,7.3585e-07
8.9000e+02,7.3611e-07
9.0000e+02,7.3629e-07
9.1000e+02,7.3640e-07
9.2000e+02,7.3642e-07
9.3000e+02,7.3635e-07
9.4000e+02,7.3619e-07
9.5000e+02,7.3593e-07
9.6000e+02,7.3557e-07
9.7000e+02,7.3512e-07
9.8000e+02,7.3457e-07
9.9000e+02,7.3395e-07
1.0000e+03,7.3326e-07
1.0100e+03,7.3250e-07
1.0200e+03,7.3169e-07
1.0300e+03,7.3086e-07
1.0400e+03,7.3000e-07
1.0500e+03,7.2915e-07
1.0600e+03,7.2832e-07
1.0700e+03,7.2752e-07
1.0800e+03,7.2677e-07
1.0900e+03,7.2609e-07
1.1000e+03,7.2550e-07
1.1100e+03,7.2500e-07
1.1200e+03,7.2461e-07
1.1300e+03,7.2434e-07
1.1400e+03,7.2419e-07
1.1500e+03,7.2416e-07
1.1600e+03,7.2427e-07
1.1700e+03,7.2451e-07
1.1800e+03,7.2487e-07
1.1900e+03,7.2535e-07
1.2000e+03,7.2593e-07
1.2100e+03,7.2662e-07
1.2200e+03,7.2739e-07
1.2300e+03,7.2824e-07
1.2400e+03,7.2916e-07
1.2500e+03,7.3012e-07
1.2600e+03,7.3112e-07
1.2700e+03,7.3214e-07
1.2800e+03,7.3318e-07
1.2900e+03,7.3422e-07
1.3000e+03,7.3525e-07
1.3100e+03,7.3627e-07
1.3200e+03,7.3727e-07
1.3300e+03,7.3825e-07
1.3400e+03,7.3919e-07
1.3500e+03,7.4011e-07
1.3600e+03,7.4098e-07
1.3700e+03,7.4181e-07
1.3800e+03,7.4260e-07
1.3900e+03,7.4335e-07
1.4000e+03,7.4404e-07
1.4100e+03,7.4469e-07
1.4200e+03,7.4528e-07
1.4300e+03,7.4582e-07
1.4400e+03,7.4630e-07
1.4500e+03,7.4672e-07
1.4600e+03,7.4709e-07
1.4700e+03,7.4739e-07
1.4800e+03,7.4764e-07
1.4900e+03,7.4783e-07
1.5000e+03,7.4797e-07
1.5100e+03,7.4805e-07
1.5200e+03,7.4807e-07
1.5300e+03,7.4805e-07
1.5400e+03,7.4799e-07
1.5500e+03,7.4788e-07
1.5600e+03,7.4773e-07
1.5700e+03,7.4754e-07
1.5800e+03,7.4732e-07
1.5900e+03,7.4706e-07
1.6000e+03,7.4677e-07
1.6100e+03,7.4645e-07
1.6200e+03,7.4611e-07
1.6300e+03,7.4573e-07
1.6400e+03,7.4533e-07
1.6500e+03,7.4491e-07
1.6600e+03,7.4446e-07
1.6700e+03,7.4399e-07
1.6800e+03,7.4350e-07
1.6900e+03,7.4299e-07
1.7000e+03,7.4246e-07
1.7100e+03,7.4193e-07
1.7200e+03,7.4138e-07
1.7300e+03,7.4082e-07
1.7400e+03,7.4027e-07
1.7500e+03,7.3972e-07
1.7600e+03,7.3918e-07
1.7700e+03,7.3865e-07
1.7800e+03,7.3814e-07
1.7900e+03,7.3766e-07
1.8000e+03,7.3720e-07
1.8100e+03,7.3678e-07
1.8200e+03,7.3640e-07
1.8300e+03,7.3605e-07
1.8400e+03,7.3575e-07
1.8500e+03,7.3549e-07
1.8600e+03,7.3527e-07
1.8700e+03,7.3509e-07
1.8800e+03,7.3494e-07
1.8900e+03,7.3482e-07
1.9000e+03,7.3473e-07
1.9100e+03,7.3465e-07
1.9200e+03,7.3458e-07
1.9300e+03,7.3450e-07
1.9400e+03,7.3442e-07
1.9500e+03,7.3431e-07
1.9600e+03,7.3416e-07
1.9700e+03,7.3398e-07
1.9800e+03,7.3375e-07
1.9900e+03,7.3345e-07
2.0000e+03,7.3309e-07
2.0100e+03,7.3266e-07
2.0200e+03,7.3215e-07
2.0300e+03,7.3156e-07
2.0400e+03,7.3089e-07
2.0500e+03,7.3014e-07
2.0600e+03,7.2932e-07
2.0700e+03,7.2841e-07
2.0800e+03,7.2743e-07
2.0900e+03,7.2639e-07
2.1000e+03,7.2530e-07
2.1100e+03,7.2416e-07
2.1200e+03,7.2299e-07
2.1300e+03,7.2180e-07
2.1400e+03,7.2061e-07
2.1500e+03,7.1943e-07
2.1600e+03,7.1829e-07
2.1700e+03,7.1720e-07
2.1800e+03,7.1617e-07
2.1900e+03,7.1524e-07
2.2000e+03,7.1440e-07
2.2100e+03,7.1369e-07
2.2200e+03,7.1310e-07
2.2300e+03,7.1264e-07
2.2400e+03,7.1233e-07
2.2500e+03,7.1216e-07
2.2600e+03,7.1213e-07
2.2700e+03,7.1223e-07
2.2800e+03,7.1246e-07
2.2900e+03,7.1280e-07
2.3000e+03,7.1324e-07
2.3100e+03,7.1376e-07
2.3200e+03,7.1435e-07
2.3300e+03,7.1499e-07
2.3400e+03,7.1566e-07
2.3500e+03,7.1635e-07
2.3600e+03,7.1704e-07
2.3700e+03,7.1773e-07
2.3800e+03,7.1839e-07
2.3900e+03,7.1903e-07
2.4000e+03,7.1964e-07
2.4100e+03,7.2022e-07
2.4200e+03,7.2076e-07
2.4300e+03,7.2126e-07
2.4400e+03,7.2172e-07
2.4500e+03,7.2214e-07
2.4600e+03,7.2253e-07
2.4700e+03,7.2288e-07
2.4800e+03,7.2319e-07
2.4900e+03,7.2347e-07
2.5000e+03,7.2372e-07
2.5100e+03,7.2394e-07
2.5200e+03,7.2412e-07
2.5300e+03,7.2427e-07
2.5400e+03,7.2439e-07
2.5500e+03,7.2448e-07
2.5600e+03,7.2454e-07
2.5700e+03,7.2457e-07
2.5800e+03,7.2457e-07
2.5900e+03,7.2455e-07
2.6000e+03,7.2450e-07
2.6100e+03,7.2442e-07
2.6200e+03,7.2432e-07
2.6300e+03,7.2421e-07
2.6400e+03,7.2408e-07
2.6500e+03,7.2394e-07
2.6600e+03,7.2378e-07
2.6700e+03,7.2362e-07
2.6800e+03,7.2346e-07
2.6900e+03,7.2329e-07
2.7000e+03,7.2311e-07
2.7100e+03,7.2294e-07
2.7200e+03,7.2276e-07
2.7300e+03,7.2259e-07
2.7400e+03,7.2241e-07
2.7500e+03,7.2223e-07
2.7600e+03,7.2205e-07
2.7700e+03,7.2187e-07
2.7800e+03,7.2168e-07
2.7900e+03,7.2148e-07
2.8000e+03,7.2128e-07
2.8100e+03,7.2107e-07
2.8200e+03,7.2084e-07
2.8300e+03,7.2059e-07
2.8400e+03,7.2032e-07
2.8500e+03,7.2003e-07
2.8600e+03,7.1971e-07
2.8700e+03,7.1936e-07
2.8800e+03,7.1897e-07
2.8900e+03,7.1854e-07
2.9000e+03,7.1808e-07
2.9100e+03,7.1758e-07
2.9200e+03,7.1705e-07
2.9300e+03,7.1649e-07
2.9400e+03,7.1591e-07
2.9500e+03,7.1533e-07
2.9600e+03,7.1474e-07
2.9700e+03,7.1417e-07
2.9800e+03,7.1363e-07
2.9900e+03,7.1314e-07
3.0000e+03,7.1271e-07
3.0100e+03,7.1236e-07
3.0200e+03,7.1210e-07
3.0300e+03,7.1195e-07
3.0400e+03,7.1191e-07
3.0500e+03,7.1200e-07
3.0600e+03,7.1222e-07
3.0700e+03,7.1257e-07
3.0800e+03,7.1305e-07
3.0900e+03,7.1366e-07
3.1000e+03,7.1439e-07
3.1100e+03,7.1521e-07
3.1200e+03,7.1613e-07
3.1300e+03,7.1712e-07
3.1400e+03,7.1816e-07
3.1500e+03,7.1923e-07
3.1600e+03,7.2032e-07
3.1700e+03,7.2139e-07
3.1800e+03,7.2243e-07
3.1900e+03,7.2342e-07
3.2000e+03,7.2436e-07
3.2100e+03,7.2521e-07
3.2200e+03,7.2598e-07
3.2300e+03,7.2665e-07
3.2400e+03,7.2722e-07
3.2500e+03,7.2770e-07
3.2600e+03,7.2808e-07
3.2700e+03,7.2837e-07
3.2800e+03,7.2857e-07
3.2900e+03,7.2869e-07
3.3000e+03,7.2875e-07
3.3100e+03,7.2874e-07
3.3200e+03,7.2868e-07
3.3300e+03,7.2859e-07
3.3400e+03,7.2846e-07
3.3500e+03,7.2831e-07
3.3600e+03,7.2815e-07
3.3700e+03,7.2798e-07
3.3800e+03,7.2781e-07
3.3900e+03,7.2763e-07
3.4000e+03,7.2746e-07
3.4100e+03,7.2730e-07
3.4200e+03,7.2713e-07
3.4300e+03,7.2698e-07
3.4400e+03,7.2682e-07
3.4500e+03,7.2668e-07
3.4600e+03,7.2653e-07
3.4700e+03,7.2640e-07
3.4800e+03,7.2626e-07
3.4900e+03,7.2614e-07
3.5000e+03,7.2601e-07
3.5100e+03,7.2590e-07
3.5200e+03,7.2580e-07
3.5300e+03,7.2571e-07
3.5400e+03,7.2563e-07
3.5500e+03,7.2557e-07
3.5600e+03,7.2553e-07
3.5700e+03,7.2551e-07
3.5800e+03,7.2551e-07
3.5900e+03,7.2553e-07
3.6000e+03,7.2556e-07
3.6100e+03,7.2562e-07
3.6200e+03,7.2569e-07
3.6300e+03,7.2577e-07
3.6400e+03,7.2586e-07
3.6500e+03,7.2596e-07
3.6600e+03,7.2606e-07
3.6700e+03,7.2615e-07
3.6800e+03,7.2624e-07
3.6900e+03,7.2632e-07
3.7000e+03,7.2638e-07
3.7100e+03,7.2643e-07
3.7200e+03,7.2646e-07
3.7300e+03,7.2648e-07
3.7400e+03,7.2647e-07
3.7500e+03,7.2644e-07
3.7600e+03,7.2639e-07
3.7700e+03,7.2633e-07
3.7800e+03,7.2624e-07
3.7900e+03,7.2613e-07
3.8000e+03,7.2601e-07
3.8100e+03,7.2586e-07
3.8200e+03,7.2570e-07
3.8300e+03,7.2552e-07
3.8400e+03,7.2531e-07
3.8500e+03,7.2509e-07
3.8600e+03,7.2484e-07
3.8700e+03,7.2458e-07
3.8800e+03,7.2430e-07
3.8900e+03,7.2400e-07
3.9000e+03,7.2369e-07
3.9100e+03,7.2336e-07
3.9200e+03,7.2303e-07
3.9300e+03,7.2269e-07
3.9400e+03,7.2236e-07
3.9500e+03,7.2202e-07
3.9600e+03,7.2169e-07
3.9700e+03,7.2136e-07
3.9800e+03,7.2105e-07
3.9900e+03,7.2075e-07
4.0000e+03,7.2047e-07
4.0100e+03,7.2020e-07
4.0200e+03,7.1996e-07
4.0300e+03,7.1973e-07
4.0400e+03,7.1952e-07
4.0500e+03,7.1933e-07
4.0600e+03,7.1916e-07
4.0700e+03,7.1901e-07
4.0800e+03,7.1888e-07
4.0900e+03,7.1877e-07
4.1000e+03,7.1868e-07
4.1100e+03,7.1861e-07
4.1200e+03,7.1855e-07
4.1300e+03,7.1851e-07
4.1400e+03,7.1848e-07
4.1500e+03,7.1847e-07
4.1600e+03,7.1847e-07
4.1700e+03,7.1847e-07
4.1800e+03,7.1848e-07
4.1900e+03,7.1850e-07
4.2000e+03,7.1851e-07
4.2100e+03,7.1853e-07
4.2200e+03,7.1855e-07
4.2300e+03,7.1857e-07
4.2400e+03,7.1858e-07
4.2500e+03,7.1859e-07
4.2600e+03,7.1859e-07
4.2700e+03,7.1859e-07
4.2800e+03,7.1858e-07
4.2900e+03,7.1857e-07
4.3000e+03,7.1855e-07
4.3100e+03,7.1853e-07
4.3200e+03,7.1850e-07
4.3300e+03,7.1846e-07
4.3400e+03,7.1843e-07
4.3500e+03,7.1838e-07
4.3600e+03,7.1833e-07
4.3700e+03,7.1828e-07
4.3800e+03,7.1823e-07
4.3900e+03,7.1817e-07
4.4000e+03,7.1811e-07
4.4100e+03,7.1804e-07
4.4200e+03,7.1798e-07
4.4300e+03,7.1791e-07
4.4400e+03,7.1784e-07
4.4500e+03,7.1778e-07
4.4600e+03,7.1771e-07
4.4700e+03,7.1765e-07
4.4800e+03,7.1758e-07
4.4900e+03,7.1752e-07
4.5000e+03,7.1746e-07
4.5100e+03,7.1741e-07
4.5200e+03,7.1736e-07
4.5300e+03,7.1731e-07
4.5400e+03,7.1727e-07
4.5500e+03,7.1724e-07
4.5600e+03,7.1720e-07
4.5700e+03,7.1717e-07
4.5800e+03,7.1715e-07
4.5900e+03,7.1712e-07
4.6000e+03,7.1710e-07
4.6100e+03,7.1708e-07
4.6200e+03,7.1705e-07
4.6300e+03,7.1703e-07
4.6400e+03,7.1700e-07
4.6500e+03,7.1696e-07
4.6600e+03,7.1692e-07
4.6700e+03,7.1688e-07
4.6800e+03,7.1682e-07
4.6900e+03,7.1675e-07
4.7000e+03,7.1667e-07
4.7100e+03,7.1659e-07
4.7200e+03,7.1648e-07
4.7300e+03,7.1637e-07
4.7400e+03,7.1624e-07
4.7500e+03,7.1610e-07
4.7600e+03,7.1594e-07
4.7700e+03,7.1577e-07
4.7800e+03,7.1559e-07
4.7900e+03,7.1539e-07
4.8000e+03,7.1518e-07
4.8100e+03,7.1495e-07
4.8200e+03,7.1472e-07
4.8300e+03,7.1447e-07
4.8400e+03,7.1422e-07
4.8500e+03,7.1395e-07
4.8600e+03,7.1369e-07
4.8700e+03,7.1342e-07
4.8800e+03,7.1315e-07
4.8900e+03,7.1289e-07
4.9000e+03,7.1263e-07
4.9100e+03,7.1238e-07
4.9200e+03,7.1214e-07
4.9300e+03,7.1193e-07
4.9400e+03,7.1173e-07
4.9500e+03,7.1155e-07
4.9600e+03,7.1139e-07
4.9700e+03,7.1126e-07
4.9800e+03,7.1115e-07
4.9900e+03,7.1106e-07
5.0000e+03,7.1099e-07
5.0100e+03,7.1093e-07
5.0200e+03,7.1087e-07
5.0300e+03,7.1080e-07
5.0400e+03,7.1071e-07
5.0500e+03,7.1059e-07
5.0600e+03,7.1043e-07
5.0700e+03,7.1020e-07
5.0800e+03,7.0991e-07
5.0900e+03,7.0952e-07
5.1000e+03,7.0904e-07
5.1100e+03,7.0846e-07
5.1200e+03,7.0777e-07
5.1300e+03,7.0697e-07
5.1400e+03,7.0607e-07
5.1500e+03,7.0507e-07
5.1600e+03,7.0400e-07
5.1700e+03,7.0287e-07
5.1800e+03,7.0170e-07
5.1900e+03,7.0053e-07
5.2000e+03,6.9938e-07
5.2100e+03,6.9828e-07
5.2200e+03,6.9726e-07
5.2300e+03,6.9635e-07
5.2400e+03,6.9559e-07
5.2500e+03,6.9498e-07
5.2600e+03,6.9455e-07
5.2700e+03,6.9432e-07
5.2800e+03,6.9428e-07
5.2900e+03,6.9445e-07
5.3000e+03,6.9483e-07
5.3100e+03,6.9540e-07
5.3200e+03,6.9615e-07
5.3300e+03,6.9706e-07
5.3400e+03,6.9812e-07
5.3500e+03,6.9929e-07
5.3600e+03,7.0055e-07
5.3700e+03,7.0188e-07
5.3800e+03,7.0324e-07
5.3900e+03,7.0460e-07
5.4000e+03,7.0593e-07
5.4100e+03,7.0720e-07
5.4200e+03,7.0839e-07
5.4300e+03,7.0948e-07
5.4400e+03,7.1044e-07
5.4500e+03,7.1127e-07
5.4600e+03,7.1195e-07
5.4700e+03,7.1247e-07
5.4800e+03,7.1285e-07
5.4900e+03,7.1308e-07
5.5000e+03,7.1318e-07
5.5100e+03,7.1316e-07
5.5200e+03,7.1304e-07
5.5300e+03,7.1283e-07
5.5400e+03,7.1256e-07
5.5500e+03,7.1224e-07
5.5600e+03,7.1189e-07
5.5700e+03,7.1153e-07
5.5800e+03,7.1117e-07
5.5900e+03,7.1082e-07
5.6000e+03,7.1049e-07
5.6100e+03,7.1018e-07
5.6200e+03,7.0990e-07
5.6300e+03,7.0965e-07
5.6400e+03,7.0943e-07
5.6500e+03,7.0924e-07
5.6600e+03,7.0907e-07
5.6700e+03,7.0893e-07
5.6800e+03,7.0882e-07
5.6900e+03,7.0874e-07
5.7000e+03,7.0868e-07
5.7100e+03,7.0865e-07
5.7200e+03,7.0866e-07
5.7300e+03,7.0869e-07
5.7400e+03,7.0876e-07
5.7500e+03,7.0884e-07
5.7600e+03,7.0895e-07
5.7700e+03,7.0908e-07
5.7800e+03,7.0920e-07
5.7900e+03,7.0932e-07
5.8000e+03,7.0942e-07
5.8100e+03,7.0948e-07
5.8200e+03,7.0949e-07
5.8300e+03,7.0943e-07
5.8400e+03,7.0930e-07
5.8500e+03,7.0907e-07
5.8600e+03,7.0875e-07
5.8700e+03,7.0832e-07
5.8800e+03,7.0779e-07
5.8900e+03,7.0715e-07
5.9000e+03,7.0641e-07
5.9100e+03,7.0559e-07
5.9200e+03,7.0470e-07
5.9300e+03,7.0375e-07
5.9400e+03,7.0277e-07
5.9500e+03,7.0177e-07
5.9600e+03,7.0079e-07
5.9700e+03,6.9984e-07
5.9800e+03,6.9896e-07
5.9900e+03,6.9816e-07
6.0000e+03,6.9746e-07
6.0100e+03,6.9690e-07
6.0200e+03,6.9647e-07
6.0300e+03,6.9620e-07
6.0400e+03,6.9609e-07
6.0500e+03,6.9615e-07
6.0600e+03,6.9637e-07
6.0700e+03,6.9674e-07
6.0800e+03,6.9726e-07
6.0900e+03,6.9791e-07
6.1000e+03,6.9867e-07
6.1100e+03,6.9953e-07
6.1200e+03,7.0044e-07
6.1300e+03,7.0141e-07
6.1400e+03,7.0238e-07
6.1500e+03,7.0336e-07
6.1600e+03,7.0430e-07
6.1700e+03,7.0519e-07
6.1800e+03,7.0602e-07
6.1900e+03,7.0676e-07
6.2000e+03,7.0741e-07
6.2100e+03,7.0795e-07
6.2200e+03,7.0839e-07
6.2300e+03,7.0872e-07
6.2400e+03,7.0894e-07
6.2500e+03,7.0906e-07
6.2600e+03,7.0908e-07
6.2700e+03,7.0902e-07
6.2800e+03,7.0888e-07
6.2900e+03,7.0869e-07
6.3000e+03,7.0844e-07
6.3100e+03,7.0817e-07
6.3200e+03,7.0788e-07
6.3300e+03,7.0758e-07
6.3400e+03,7.0729e-07
6.3500e+03,7.0702e-07
6.3600e+03,7.0678e-07
6.3700e+03,7.0657e-07
6.3800e+03,7.0641e-07
6.3900e+03,7.0630e-07
6.4000e+03,7.0624e-07
6.4100e+03,7.0623e-07
6.4200e+03,7.0627e-07
6.4300e+03,7.0635e-07
6.4400e+03,7.0648e-07
6.4500e+03,7.0664e-07
6.4600e+03,7.0683e-07
6.4700e+03,7.0704e-07
6.4800e+03,7.0727e-07
6.4900e+03,7.0751e-07
6.5000e+03,7.0773e-07
6.5100e+03,7.0795e-07
6.5200e+03,7.0815e-07
6.5300e+03,7.0831e-07
6.5400e+03,7.0845e-07
6.5500e+03,7.0853e-07
6.5600e+03,7.0857e-07
6.5700e+03,7.0856e-07
6.5800e+03,7.0849e-07
6.5900e+03,7.0836e-07
6.6000e+03,7.0817e-07
6.6100e+03,7.0793e-07
6.6200e+03,7.0762e-07
6.6300e+03,7.0726e-07
6.6400e+03,7.0685e-07
6.6500e+03,7.0638e-07
6.6600e+03,7.0587e-07
6.6700e+03,7.0531e-07
6.6800e+03,7.0471e-07
6.6900e+03,7.0406e-07
6.7000e+03,7.0338e-07
6.7100e+03,7.0266e-07
6.7200e+03,7.0189e-07
6.7300e+03,7.0109e-07
6.7400e+03,7.0023e-07
6.7500e+03,6.9933e-07
6.7600e+03,6.9837e-07
6.7700e+03,6.9736e-07
6.7800e+03,6.9628e-07
6.7900e+03,6.9514e-07
6.8000e+03,6.9393e-07
6.8100e+03,6.9265e-07
6.8200e+03,6.9130e-07
6.8300e+03,6.8987e-07
6.8400e+03,6.8838e-07
6.8500e+03,6.8682e-07
6.8600e+03,6.8522e-07
6.8700e+03,6.8358e-07
6.8800e+03,6.8191e-07
6.8900e+03,6.8025e-07
6.9000e+03,6.7860e-07
6.9100e+03,6.7699e-07
6.9200e+03,6.7545e-07
6.9300e+03,6.7400e-07
6.9400e+03,6.7268e-07
6.9500e+03,6.7150e-07
6.9600e+03,6.7050e-07
6.9700e+03,6.6969e-07
6.9800e+03,6.6911e-07
6.9900e+03,6.6876e-07
7.0000e+03,6.6865e-07
7.0100e+03,6.6881e-07
7.0200e+03,6.6924e-07
7.0300e+03,6.6993e-07
7.0400e+03,6.7089e-07
7.0500e+03,6.7210e-07
7.0600e+03,6.7356e-07
7.0700e+03,6.7526e-07
7.0800e+03,6.7718e-07
7.0900e+03,6.7929e-07
7.1000e+03,6.8159e-07
7.1100e+03,6.8404e-07
7.1200e+03,6.8662e-07
7.1300e+03,6.8931e-07
7.1400e+03,6.9209e-07
7.1500e+03,6.9491e-07
7.1600e+03,6.9777e-07
7.1700e+03,7.0064e-07
7.1800e+03,7.0348e-07
7.1900e+03,7.0628e-07
7.2000e+03,7.0902e-07
7.2100e+03,7.1166e-07
7.2200e+03,7.1420e-07
7.2300e+03,7.1660e-07
7.2400e+03,7.1885e-07
7.2500e+03,7.2094e-07
7.2600e+03,7.2284e-07
7.2700e+03,7.2455e-07
7.2800e+03,7.2605e-07
7.2900e+03,7.2733e-07
7.3000e+03,7.2838e-07
7.3100e+03,7.2919e-07
7.3200e+03,7.2976e-07
7.3300e+03,7.3008e-07
7.3400e+03,7.3015e-07
7.3500e+03,7.2998e-07
7.3600e+03,7.2955e-07
7.3700e+03,7.2888e-07
7.3800e+03,7.2797e-07
7.3900e+03,7.2683e-07
7.4000e+03,7.2547e-07
7.4100e+03,7.2389e-07
7.4200e+03,7.2211e-07
7.4300e+03,7.2014e-07
7.4400e+03,7.1800e-07
7.4500e+03,7.1571e-07
7.4600e+03,7.1327e-07
7.4700e+03,7.1072e-07
7.4800e+03,7.0806e-07
7.4900e+03,7.0533e-07
7.5000e+03,7.0253e-07
7.5100e+03,6.9970e-07
7.5200e+03,6.9685e-07
7.5300e+03,6.9399e-07
7.5400e+03,6.9116e-07
7.5500e+03,6.8836e-07
7.5600e+03,6.8561e-07
7.5700e+03,6.8293e-07
7.5800e+03,6.8032e-07
7.5900e+03,6.7780e-07
7.6000e+03,6.7537e-07
7.6100e+03,6.7304e-07
7.6200e+03,6.7082e-07
7.6300e+03,6.6870e-07
7.6400e+03,6.6669e-07
7.6500e+03,6.6479e-07
7.6600e+03,6.6299e-07
7.6700e+03,6.6128e-07
7.6800e+03,6.5967e-07
7.6900e+03,6.5814e-07
7.7000e+03,6.5668e-07
7.7100e+03,6.5530e-07
7.7200e+03,6.5397e-07
7.7300e+03,6.5270e-07
7.7400e+03,6.5146e-07
7.7500e+03,6.5025e-07
7.7600e+03,6.4906e-07
7.7700e+03,6.4789e-07
7.7800e+03,6.4673e-07
7.7900e+03,6.4556e-07
7.8000e+03,6.4440e-07
7.8100e+03,6.4322e-07
7.8200e+03,6.4204e-07
7.8300e+03,6.4085e-07
7.8400e+03,6.3965e-07
7.8500e+03,6.3845e-07
7.8600e+03,6.3724e-07
7.8700e+03,6.3603e-07
7.8800e+03,6.3483e-07
7.8900e+03,6.3364e-07
7.9000e+03,6.3247e-07
7.9100e+03,6.3132e-07
7.9200e+03,6.3021e-07
7.9300e+03,6.2913e-07
7.9400e+03,6.2810e-07
7.9500e+03,6.2713e-07
7.9600e+03,6.2622e-07
7.9700e+03,6.2537e-07
7.9800e+03,6.2459e-07
7.9900e+03,6.2389e-07
8.0000e+03,6.2325e-07
8.0100e+03,6.2270e-07
8.0200e+03,6.2221e-07
8.0300e+03,6.2179e-07
8.0400e+03,6.2144e-07
8.0500e+03,6.2114e-07
8.0600e+03,6.2090e-07
8.0700e+03,6.2069e-07
8.0800e+03,6.2052e-07
8.0900e+03,6.2037e-07
8.1000e+03,6.2023e-07
8.1100e+03,6.2009e-07
8.1200e+03,6.1994e-07
8.1300e+03,6.1976e-07
8.1400e+03,6.1955e-07
8.1500e+03,6.1929e-07
8.1600e+03,6.1898e-07
8.1700e+03,6.1860e-07
8.1800e+03,6.1814e-07
8.1900e+03,6.1760e-07
8.2000e+03,6.1696e-07
8.2100e+03,6.1621e-07
8.2200e+03,6.1536e-07
8.2300e+03,6.1438e-07
8.2400e+03,6.1328e-07
8.2500e+03,6.1204e-07
8.2600e+03,6.1067e-07
8.2700e+03,6.0916e-07
8.2800e+03,6.0751e-07
8.2900e+03,6.0573e-07
8.3000e+03,6.0381e-07
8.3100e+03,6.0177e-07
8.3200e+03,5.9960e-07
8.3300e+03,5.9733e-07
8.3400e+03,5.9497e-07
8.3500e+03,5.9253e-07
8.3600e+03,5.9002e-07
8.3700e+03,5.8748e-07
8.3800e+03,5.8492e-07
8.3900e+03,5.8236e-07
8.4000e+03,5.7982e-07
8.4100e+03,5.7732e-07
8.4200e+03,5.7489e-07
8.4300e+03,5.7253e-07
8.4400e+03,5.7028e-07
8.4500e+03,5.6813e-07
8.4600e+03,5.6610e-07
8.4700e+03,5.6421e-07
8.4800e+03,5.6245e-07
8.4900e+03,5.6083e-07
8.5000e+03,5.5935e-07
8.5100e+03,5.5801e-07
8.5200e+03,5.5681e-07
8.5300e+03,5.5574e-07
8.5400e+03,5.5480e-07
8.5500e+03,5.5398e-07
8.5600e+03,5.5329e-07
8.5700e+03,5.5272e-07
8.5800e+03,5.5226e-07
8.5900e+03,5.5191e-07
8.6000e+03,5.5168e-07
8.6100e+03,5.5155e-07
8.6200e+03,5.5153e-07
8.6300e+03,5.5161e-07
8.6400e+03,5.5179e-07
8.6500e+03,5.5206e-07
8.6600e+03,5.5243e-07
8.6700e+03,5.5287e-07
8.6800e+03,5.5339e-07
8.6900e+03,5.5399e-07
8.7000e+03,5.5465e-07
8.7100e+03,5.5536e-07
8.7200e+03,5.5614e-07
8.7300e+03,5.5696e-07
8.7400e+03,5.5785e-07
8.7500e+03,5.5879e-07
8.7600e+03,5.5980e-07
8.7700e+03,5.6088e-07
8.7800e+03,5.6205e-07
8.7900e+03,5.6332e-07
8.8000e+03,5.6471e-07
8.8100e+03,5.6622e-07
8.8200e+03,5.6789e-07
8.8300e+03,5.6972e-07
8.8400e+03,5.7174e-07
8.8500e+03,5.7396e-07
8.8600e+03,5.7641e-07
8.8700e+03,5.7909e-07
8.8800e+03,5.8201e-07
8.8900e+03,5.8519e-07
8.9000e+03,5.8864e-07
8.9100e+03,5.9236e-07
8.9200e+03,5.9634e-07
8.9300e+03,6.0059e-07
8.9400e+03,6.0510e-07
8.9500e+03,6.0986e-07
8.9600e+03,6.1485e-07
8.9700e+03,6.2007e-07
8.9800e+03,6.2549e-07
8.9900e+03,6.3109e-07
9.0000e+03,6.3685e-07
9.0100e+03,6.4275e-07
9.0200e+03,6.4877e-07
9.0300e+03,6.5487e-07
9.0400e+03,6.6105e-07
9.0500e+03,6.6726e-07
9.0600e+03,6.7348e-07
9.0700e+03,6.7970e-07
