# Time , Side-Flux
0.0000e+00,0.0000e+00
1.0000e+01,6.6541e-10
2.0000e+01,1.3304e-09
3.0000e+01,1.9947e-09
4.0000e+01,2.6578e-09
5.0000e+01,3.3193e-09
6.0000e+01,3.9790e-09
7.0000e+01,4.6363e-09
8.0000e+01,5.2910e-09
9.0000e+01,5.9428e-09
1.0000e+02,6.5911e-09
1.1000e+02,7.2358e-09
1.2000e+02,7.8764e-09
1.3000e+02,8.5128e-09
1.4000e+02,9.1445e-09
1.5000e+02,9.7712e-09
1.6000e+02,1.0393e-08
1.7000e+02,1.1009e-08
1.8000e+02,1.1619e-08
1.9000e+02,1.2224e-08
2.0000e+02,1.2822e-08
2.1000e+02,1.3414e-08
2.2000e+02,1.3999e-08
2.3000e+02,1.4578e-08
2.4000e+02,1.5149e-08
2.5000e+02,1.5714e-08
2.6000e+02,1.6271e-08
2.7000e+02,1.6821e-08
2.8000e+02,1.7364e-08
2.9000e+02,1.7899e-08
3.0000e+02,1.8427e-08
3.1000e+02,1.8947e-08
3.2000e+02,1.9459e-08
3.3000e+02,1.9964e-08
3.4000e+02,2.0460e-08
3.5000e+02,2.0949e-08
3.6000e+02,2.1431e-08
3.7000e+02,2.1904e-08
3.8000e+02,2.2370e-08
3.9000e+02,2.2828e-08
4.0000e+02,2.3279e-08
4.1000e+02,2.3721e-08
4.2000e+02,2.4157e-08
4.3000e+02,2.4584e-08
4.4000e+02,2.5005e-08
4.5000e+02,2.5418e-08
4.6000e+02,2.5823e-08
4.7000e+02,2.6221e-08
4.8000e+02,2.6613e-08
4.9000e+02,2.6997e-08
5.0000e+02,2.7374e-08
5.1000e+02,2.7745e-08
5.2000e+02,2.8108e-08
5.3000e+02,2.8465e-08
5.4000e+02,2.8816e-08
5.5000e+02,2.9160e-08
5.6000e+02,2.9497e-08
5.7000e+02,2.9829e-08
5.8000e+02,3.0154e-08
5.9000e+02,3.0473e-08
6.0000e+02,3.0787e-08
6.1000e+02,3.1094e-08
6.2000e+02,3.1396e-08
6.3000e+02,3.1693e-08
6.4000e+02,3.1983e-08
6.5000e+02,3.2269e-08
6.6000e+02,3.2549e-08
6.7000e+02,3.2824e-08
6.8000e+02,3.3094e-08
6.9000e+02,3.3359e-08
7.0000e+02,3.3619e-08
7.1000e+02,3.3874e-08
7.2000e+02,3.4125e-08
7.3000e+02,3.4371e-08
7.4000e+02,3.4612e-08
7.5000e+02,3.4850e-08
7.6000e+02,3.5082e-08
7.7000e+02,3.5311e-08
7.8000e+02,3.5535e-08
7.9000e+02,3.5756e-08
8.0000e+02,3.5972e-08
8.1000e+02,3.6184e-08
8.2000e+02,3.6393e-08
8.3000e+02,3.6598e-08
8.4000e+02,3.6799e-08
8.5000e+02,3.6996e-08
8.6000e+02,3.7190e-08
8.7000e+02,3.7380e-08
8.8000e+02,3.7567e-08
8.9000e+02,3.7751e-08
9.0000e+02,3.7931e-08
9.1000e+02,3.8107e-08
9.2000e+02,3.8281e-08
9.3000e+02,3.8451e-08
9.4000e+02,3.8618e-08
9.5000e+02,3.8782e-08
9.6000e+02,3.8943e-08
9.7000e+02,3.9101e-08
9.8000e+02,3.9256e-08
9.9000e+02,3.9408e-08
1.0000e+03,3.9557e-08
1.0100e+03,3.9703e-08
1.0200e+03,3.9846e-08
1.0300e+03,3.9986e-08
1.0400e+03,4.0123e-08
1.0500e+03,4.0258e-08
1.0600e+03,4.0389e-08
1.0700e+03,4.0518e-08
1.0800e+03,4.0644e-08
1.0900e+03,4.0767e-08
1.1000e+03,4.0887e-08
1.1100e+03,4.1004e-08
1.1200e+03,4.1119e-08
1.1300e+03,4.1230e-08
1.1400e+03,4.1339e-08
1.1500e+03,4.1445e-08
1.1600e+03,4.1548e-08
1.1700e+03,4.1649e-08
1.1800e+03,4.1746e-08
1.1900e+03,4.1841e-08
1.2000e+03,4.1933e-08
1.2100e+03,4.2022e-08
1.2200e+03,4.2108e-08
1.2300e+03,4.2192e-08
1.2400e+03,4.2272e-08
1.2500e+03,4.2350e-08
1.2600e+03,4.2425e-08
1.2700e+03,4.2497e-08
1.2800e+03,4.2567e-08
1.2900e+03,4.2633e-08
1.3000e+03,4.2697e-08
1.3100e+03,4.2759e-08
1.3200e+03,4.2817e-08
1.3300e+03,4.2873e-08
1.3400e+03,4.2926e-08
1.3500e+03,4.2976e-08
1.3600e+03,4.3024e-08
1.3700e+03,4.3070e-08
1.3800e+03,4.3113e-08
1.3900e+03,4.3153e-08
1.4000e+03,4.3191e-08
1.4100e+03,4.3227e-08
1.4200e+03,4.3260e-08
1.4300e+03,4.3291e-08
1.4400e+03,4.3320e-08
1.4500e+03,4.3346e-08
1.4600e+03,4.3371e-08
1.4700e+03,4.3393e-08
1.4800e+03,4.3414e-08
1.4900e+03,4.3432e-08
1.5000e+03,4.3449e-08
1.5100e+03,4.3464e-08
1.5200e+03,4.3478e-08
1.5300e+03,4.3489e-08
1.5400e+03,4.3500e-08
1.5500e+03,4.3508e-08
1.5600e+03,4.3516e-08
1.5700e+03,4.3522e-08
1.5800e+03,4.3527e-08
1.5900e+03,4.3531e-08
1.6000e+03,4.3534e-08
1.6100e+03,4.3536e-08
1.6200e+03,4.3537e-08
1.6300e+03,4.3537e-08
1.6400e+03,4.3536e-08
1.6500e+03,4.3535e-08
1.6600e+03,4.3534e-08
1.6700e+03,4.3532e-08
1.6800e+03,4.3529e-08
1.6900e+03,4.3527e-08
1.7000e+03,4.3524e-08
1.7100e+03,4.3521e-08
1.7200e+03,4.3518e-08
1.7300e+03,4.3515e-08
1.7400e+03,4.3513e-08
1.7500e+03,4.3510e-08
1.7600e+03,4.3508e-08
1.7700e+03,4.3506e-08
1.7800e+03,4.3505e-08
1.7900e+03,4.3504e-08
1.8000e+03,4.3504e-08
1.8100e+03,4.3504e-08
1.8200e+03,4.3505e-08
1.8300e+03,4.3507e-08
1.8400e+03,4.3509e-08
1.8500e+03,4.3513e-08
1.8600e+03,4.3517e-08
1.8700e+03,4.3523e-08
1.8800e+03,4.3529e-08
1.8900e+03,4.3537e-08
1.9000e+03,4.3546e-08
1.9100e+03,4.3556e-08
1.9200e+03,4.3567e-08
1.9300e+03,4.3579e-08
1.9400e+03,4.3593e-08
1.9500e+03,4.3608e-08
1.9600e+03,4.3625e-08
1.9700e+03,4.3643e-08
1.9800e+03,4.3662e-08
1.9900e+03,4.3683e-08
2.0000e+03,4.3705e-08
2.0100e+03,4.3728e-08
2.0200e+03,4.3754e-08
2.0300e+03,4.3780e-08
2.0400e+03,4.3808e-08
2.0500e+03,4.3838e-08
2.0600e+03,4.3869e-08
2.0700e+03,4.3902e-08
2.0800e+03,4.3936e-08
2.0900e+03,4.3972e-08
2.1000e+03,4.4009e-08
2.1100e+03,4.4048e-08
2.1200e+03,4.4088e-08
2.1300e+03,4.4130e-08
2.1400e+03,4.4173e-08
2.1500e+03,4.4218e-08
2.1600e+03,4.4264e-08
2.1700e+03,4.4311e-08
2.1800e+03,4.4360e-08
2.1900e+03,4.4410e-08
2.2000e+03,4.4461e-08
2.2100e+03,4.4514e-08
2.2200e+03,4.4568e-08
2.2300e+03,4.4623e-08
2.2400e+03,4.4679e-08
2.2500e+03,4.4737e-08
2.2600e+03,4.4795e-08
2.2700e+03,4.4855e-08
2.2800e+03,4.4915e-08
2.2900e+03,4.4977e-08
2.3000e+03,4.5039e-08
2.3100e+03,4.5102e-08
2.3200e+03,4.5167e-08
2.3300e+03,4.5231e-08
2.3400e+03,4.5297e-08
2.3500e+03,4.5364e-08
2.3600e+03,4.5431e-08
2.3700e+03,4.5498e-08
2.3800e+03,4.5567e-08
2.3900e+03,4.5635e-08
2.4000e+03,4.5705e-08
2.4100e+03,4.5774e-08
2.4200e+03,4.5845e-08
2.4300e+03,4.5915e-08
2.4400e+03,4.5986e-08
2.4500e+03,4.6058e-08
2.4600e+03,4.6129e-08
2.4700e+03,4.6201e-08
2.4800e+03,4.6273e-08
2.4900e+03,4.6346e-08
2.5000e+03,4.6418e-08
2.5100e+03,4.6491e-08
2.5200e+03,4.6564e-08
2.5300e+03,4.6637e-08
2.5400e+03,4.6710e-08
2.5500e+03,4.6783e-08
2.5600e+03,4.6857e-08
2.5700e+03,4.6930e-08
2.5800e+03,4.7004e-08
2.5900e+03,4.7077e-08
2.6000e+03,4.7151e-08
2.6100e+03,4.7224e-08
2.6200e+03,4.7298e-08
2.6300e+03,4.7372e-08
2.6400e+03,4.7446e-08
2.6500e+03,4.7519e-08
2.6600e+03,4.7593e-08
2.6700e+03,4.7667e-08
2.6800e+03,4.7741e-08
2.6900e+03,4.7815e-08
2.7000e+03,4.7889e-08
2.7100e+03,4.7962e-08
2.7200e+03,4.8036e-08
2.7300e+03,4.8110e-08
2.7400e+03,4.8184e-08
2.7500e+03,4.8258e-08
2.7600e+03,4.8332e-08
2.7700e+03,4.8406e-08
2.7800e+03,4.8481e-08
2.7900e+03,4.8555e-08
2.8000e+03,4.8629e-08
2.8100e+03,4.8703e-08
2.8200e+03,4.8777e-08
2.8300e+03,4.8852e-08
2.8400e+03,4.8926e-08
2.8500e+03,4.9000e-08
2.8600e+03,4.9074e-08
2.8700e+03,4.9149e-08
2.8800e+03,4.9223e-08
2.8900e+03,4.9297e-08
2.9000e+03,4.9371e-08
2.9100e+03,4.9445e-08
2.9200e+03,4.9519e-08
2.9300e+03,4.9593e-08
2.9400e+03,4.9667e-08
2.9500e+03,4.9741e-08
2.9600e+03,4.9815e-08
2.9700e+03,4.9888e-08
2.9800e+03,4.9961e-08
2.9900e+03,5.0035e-08
3.0000e+03,5.0107e-08
3.0100e+03,5.0180e-08
3.0200e+03,5.0253e-08
3.0300e+03,5.0325e-08
3.0400e+03,5.0396e-08
3.0500e+03,5.0468e-08
3.0600e+03,5.0539e-08
3.0700e+03,5.0610e-08
3.0800e+03,5.0680e-08
3.0900e+03,5.0750e-08
3.1000e+03,5.0819e-08
3.1100e+03,5.0888e-08
3.1200e+03,5.0956e-08
3.1300e+03,5.1024e-08
3.1400e+03,5.1091e-08
3.1500e+03,5.1157e-08
3.1600e+03,5.1223e-08
3.1700e+03,5.1288e-08
3.1800e+03,5.1353e-08
3.1900e+03,5.1416e-08
3.2000e+03,5.1479e-08
3.2100e+03,5.1541e-08
3.2200e+03,5.1602e-08
3.2300e+03,5.1663e-08
3.2400e+03,5.1722e-08
3.2500e+03,5.1781e-08
3.2600e+03,5.1839e-08
3.2700e+03,5.1896e-08
3.2800e+03,5.1951e-08
3.2900e+03,5.2006e-08
3.3000e+03,5.2060e-08
3.3100e+03,5.2113e-08
3.3200e+03,5.2164e-08
3.3300e+03,5.2215e-08
3.3400e+03,5.2265e-08
3.3500e+03,5.2313e-08
3.3600e+03,5.2361e-08
3.3700e+03,5.2407e-08
3.3800e+03,5.2452e-08
3.3900e+03,5.2496e-08
3.4000e+03,5.2539e-08
3.4100e+03,5.2580e-08
3.4200e+03,5.2621e-08
3.4300e+03,5.2660e-08
3.4400e+03,5.2698e-08
3.4500e+03,5.2735e-08
3.4600e+03,5.2771e-08
3.4700e+03,5.2806e-08
3.4800e+03,5.2839e-08
3.4900e+03,5.2871e-08
3.5000e+03,5.2902e-08
3.5100e+03,5.2932e-08
3.5200e+03,5.2961e-08
3.5300e+03,5.2989e-08
3.5400e+03,5.3015e-08
3.5500e+03,5.3040e-08
3.5600e+03,5.3064e-08
3.5700e+03,5.3087e-08
3.5800e+03,5.3109e-08
3.5900e+03,5.3130e-08
3.6000e+03,5.3150e-08
3.6100e+03,5.3168e-08
3.6200e+03,5.3186e-08
3.6300e+03,5.3203e-08
3.6400e+03,5.3218e-08
3.6500e+03,5.3233e-08
3.6600e+03,5.3247e-08
3.6700e+03,5.3259e-08
3.6800e+03,5.3271e-08
3.6900e+03,5.3282e-08
3.7000e+03,5.3292e-08
3.7100e+03,5.3302e-08
3.7200e+03,5.3310e-08
3.7300e+03,5.3318e-08
3.7400e+03,5.3325e-08
3.7500e+03,5.3331e-08
3.7600e+03,5.3337e-08
3.7700e+03,5.3342e-08
3.7800e+03,5.3346e-08
3.7900e+03,5.3350e-08
3.8000e+03,5.3353e-08
3.8100e+03,5.3356e-08
3.8200e+03,5.3358e-08
3.8300e+03,5.3360e-08
3.8400e+03,5.3361e-08
3.8500e+03,5.3362e-08
3.8600e+03,5.3362e-08
3.8700e+03,5.3363e-08
3.8800e+03,5.3362e-08
3.8900e+03,5.3362e-08
3.9000e+03,5.3361e-08
3.9100e+03,5.3360e-08
3.9200e+03,5.3359e-08
3.9300e+03,5.3358e-08
3.9400e+03,5.3356e-08
3.9500e+03,5.3354e-08
3.9600e+03,5.3353e-08
3.9700e+03,5.3351e-08
3.9800e+03,5.3349e-08
3.9900e+03,5.3347e-08
4.0000e+03,5.3345e-08
4.0100e+03,5.3343e-08
4.0200e+03,5.3341e-08
4.0300e+03,5.3339e-08
4.0400e+03,5.3337e-08
4.0500e+03,5.3335e-08
4.0600e+03,5.3333e-08
4.0700e+03,5.3332e-08
4.0800e+03,5.3330e-08
4.0900e+03,5.3329e-08
4.1000e+03,5.3327e-08
4.1100e+03,5.3326e-08
4.1200e+03,5.3325e-08
4.1300e+03,5.3324e-08
4.1400e+03,5.3323e-08
4.1500e+03,5.3322e-08
4.1600e+03,5.3322e-08
4.1700e+03,5.3321e-08
4.1800e+03,5.3321e-08
4.1900e+03,5.3321e-08
4.2000e+03,5.3321e-08
4.2100e+03,5.3321e-08
4.2200e+03,5.3322e-08
4.2300e+03,5.3323e-08
4.2400e+03,5.3323e-08
4.2500e+03,5.3324e-08
4.2600e+03,5.3326e-08
4.2700e+03,5.3327e-08
4.2800e+03,5.3328e-08
4.2900e+03,5.3330e-08
4.3000e+03,5.3332e-08
4.3100e+03,5.3334e-08
4.3200e+03,5.3336e-08
4.3300e+03,5.3339e-08
4.3400e+03,5.3341e-08
4.3500e+03,5.3344e-08
4.3600e+03,5.3347e-08
4.3700e+03,5.3350e-08
4.3800e+03,5.3353e-08
4.3900e+03,5.3356e-08
4.4000e+03,5.3360e-08
4.4100e+03,5.3364e-08
4.4200e+03,5.3367e-08
4.4300e+03,5.3371e-08
4.4400e+03,5.3376e-08
4.4500e+03,5.3380e-08
4.4600e+03,5.3384e-08
4.4700e+03,5.3389e-08
4.4800e+03,5.3394e-08
4.4900e+03,5.3399e-08
4.5000e+03,5.3404e-08
4.5100e+03,5.3409e-08
4.5200e+03,5.3414e-08
4.5300e+03,5.3420e-08
4.5400e+03,5.3426e-08
4.5500e+03,5.3431e-08
4.5600e+03,5.3438e-08
4.5700e+03,5.3444e-08
4.5800e+03,5.3450e-08
4.5900e+03,5.3457e-08
4.6000e+03,5.3463e-08
4.6100e+03,5.3470e-08
4.6200e+03,5.3477e-08
4.6300e+03,5.3484e-08
4.6400e+03,5.3492e-08
4.6500e+03,5.3499e-08
4.6600e+03,5.3507e-08
4.6700e+03,5.3515e-08
4.6800e+03,5.3523e-08
4.6900e+03,5.3531e-08
4.7000e+03,5.3539e-08
4.7100e+03,5.3548e-08
4.7200e+03,5.3557e-08
4.7300e+03,5.3566e-08
4.7400e+03,5.3575e-08
4.7500e+03,5.3585e-08
4.7600e+03,5.3595e-08
4.7700e+03,5.3604e-08
4.7800e+03,5.3615e-08
4.7900e+03,5.3625e-08
4.8000e+03,5.3636e-08
4.8100e+03,5.3647e-08
4.8200e+03,5.3658e-08
4.8300e+03,5.3669e-08
4.8400e+03,5.3681e-08
4.8500e+03,5.3692e-08
4.8600e+03,5.3704e-08
4.8700e+03,5.3717e-08
4.8800e+03,5.3729e-08
4.8900e+03,5.3742e-08
4.9000e+03,5.3755e-08
4.9100e+03,5.3768e-08
4.9200e+03,5.3782e-08
4.9300e+03,5.3796e-08
4.9400e+03,5.3810e-08
4.9500e+03,5.3824e-08
4.9600e+03,5.3838e-08
4.9700e+03,5.3853e-08
4.9800e+03,5.3868e-08
4.9900e+03,5.3883e-08
5.0000e+03,5.3898e-08
5.0100e+03,5.3914e-08
5.0200e+03,5.3930e-08
5.0300e+03,5.3945e-08
5.0400e+03,5.3961e-08
5.0500e+03,5.3978e-08
5.0600e+03,5.3994e-08
5.0700e+03,5.4010e-08
5.0800e+03,5.4027e-08
5.0900e+03,5.4043e-08
5.1000e+03,5.4060e-08
5.1100e+03,5.4077e-08
5.1200e+03,5.4094e-08
5.1300e+03,5.4110e-08
5.1400e+03,5.4127e-08
5.1500e+03,5.4144e-08
5.1600e+03,5.4161e-08
5.1700e+03,5.4177e-08
5.1800e+03,5.4194e-08
5.1900e+03,5.4211e-08
5.2000e+03,5.4227e-08
5.2100e+03,5.4243e-08
5.2200e+03,5.4260e-08
5.2300e+03,5.4276e-08
5.2400e+03,5.4292e-08
5.2500e+03,5.4307e-08
5.2600e+03,5.4323e-08
5.2700e+03,5.4338e-08
5.2800e+03,5.4353e-08
5.2900e+03,5.4367e-08
5.3000e+03,5.4382e-08
5.3100e+03,5.4396e-08
5.3200e+03,5.4410e-08
5.3300e+03,5.4423e-08
5.3400e+03,5.4436e-08
5.3500e+03,5.4449e-08
5.3600e+03,5.4461e-08
5.3700e+03,5.4473e-08
5.3800e+03,5.4484e-08
5.3900e+03,5.4495e-08
5.4000e+03,5.4506e-08
5.4100e+03,5.4516e-08
5.4200e+03,5.4526e-08
5.4300e+03,5.4535e-08
5.4400e+03,5.4544e-08
5.4500e+03,5.4552e-08
5.4600e+03,5.4560e-08
5.4700e+03,5.4567e-08
5.4800e+03,5.4574e-08
5.4900e+03,5.4580e-08
5.5000e+03,5.4586e-08
5.5100e+03,5.4591e-08
5.5200e+03,5.4595e-08
5.5300e+03,5.4599e-08
5.5400e+03,5.4603e-08
5.5500e+03,5.4606e-08
5.5600e+03,5.4608e-08
5.5700e+03,5.4610e-08
5.5800e+03,5.4612e-08
5.5900e+03,5.4612e-08
5.6000e+03,5.4613e-08
5.6100e+03,5.4613e-08
5.6200e+03,5.4612e-08
5.6300e+03,5.4610e-08
5.6400e+03,5.4609e-08
5.6500e+03,5.4606e-08
5.6600e+03,5.4603e-08
5.6700e+03,5.4600e-08
5.6800e+03,5.4596e-08
5.6900e+03,5.4592e-08
5.7000e+03,5.4587e-08
5.7100e+03,5.4582e-08
5.7200e+03,5.4576e-08
5.7300e+03,5.4569e-08
5.7400e+03,5.4563e-08
5.7500e+03,5.4555e-08
5.7600e+03,5.4547e-08
5.7700e+03,5.4539e-08
5.7800e+03,5.4531e-08
5.7900e+03,5.4522e-08
5.8000e+03,5.4512e-08
5.8100e+03,5.4502e-08
5.8200e+03,5.4492e-08
5.8300e+03,5.4481e-08
5.8400e+03,5.4470e-08
5.8500e+03,5.4459e-08
5.8600e+03,5.4447e-08
5.8700e+03,5.4435e-08
5.8800e+03,5.4422e-08
5.8900e+03,5.4409e-08
5.9000e+03,5.4396e-08
5.9100e+03,5.4383e-08
5.9200e+03,5.4369e-08
5.9300e+03,5.4355e-08
5.9400e+03,5.4341e-08
5.9500e+03,5.4326e-08
5.9600e+03,5.4311e-08
5.9700e+03,5.4296e-08
5.9800e+03,5.4281e-08
5.9900e+03,5.4265e-08
6.0000e+03,5.4249e-08
6.0100e+03,5.4233e-08
6.0200e+03,5.4217e-08
6.0300e+03,5.4201e-08
6.0400e+03,5.4184e-08
6.0500e+03,5.4167e-08
6.0600e+03,5.4150e-08
6.0700e+03,5.4133e-08
6.0800e+03,5.4116e-08
6.0900e+03,5.4098e-08
6.1000e+03,5.4081e-08
6.1100e+03,5.4063e-08
6.1200e+03,5.4045e-08
6.1300e+03,5.4027e-08
6.1400e+03,5.4009e-08
6.1500e+03,5.3991e-08
6.1600e+03,5.3972e-08
6.1700e+03,5.3954e-08
6.1800e+03,5.3935e-08
6.1900e+03,5.3917e-08
6.2000e+03,5.3898e-08
6.2100e+03,5.3879e-08
6.2200e+03,5.3860e-08
6.2300e+03,5.3841e-08
6.2400e+03,5.3822e-08
6.2500e+03,5.3803e-08
6.2600e+03,5.3783e-08
6.2700e+03,5.3764e-08
6.2800e+03,5.3745e-08
6.2900e+03,5.3725e-08
6.3000e+03,5.3706e-08
6.3100e+03,5.3686e-08
6.3200e+03,5.3666e-08
6.3300e+03,5.3647e-08
6.3400e+03,5.3627e-08
6.3500e+03,5.3607e-08
6.3600e+03,5.3587e-08
6.3700e+03,5.3568e-08
6.3800e+03,5.3548e-08
6.3900e+03,5.3528e-08
6.4000e+03,5.3508e-08
6.4100e+03,5.3488e-08
6.4200e+03,5.3468e-08
6.4300e+03,5.3448e-08
6.4400e+03,5.3428e-08
6.4500e+03,5.3409e-08
6.4600e+03,5.3389e-08
6.4700e+03,5.3369e-08
6.4800e+03,5.3349e-08
6.4900e+03,5.3329e-08
6.5000e+03,5.3310e-08
6.5100e+03,5.3290e-08
6.5200e+03,5.3271e-08
6.5300e+03,5.3251e-08
6.5400e+03,5.3232e-08
6.5500e+03,5.3212e-08
6.5600e+03,5.3193e-08
6.5700e+03,5.3174e-08
6.5800e+03,5.3155e-08
6.5900e+03,5.3136e-08
6.6000e+03,5.3117e-08
6.6100e+03,5.3098e-08
6.6200e+03,5.3080e-08
6.6300e+03,5.3061e-08
6.6400e+03,5.3043e-08
6.6500e+03,5.3025e-08
6.6600e+03,5.3007e-08
6.6700e+03,5.2989e-08
6.6800e+03,5.2971e-08
6.6900e+03,5.2954e-08
6.7000e+03,5.2937e-08
6.7100e+03,5.2920e-08
6.7200e+03,5.2903e-08
6.7300e+03,5.2886e-08
6.7400e+03,5.2870e-08
6.7500e+03,5.2854e-08
6.7600e+03,5.2838e-08
6.7700e+03,5.2822e-08
6.7800e+03,5.2807e-08
6.7900e+03,5.2792e-08
6.8000e+03,5.2777e-08
6.8100e+03,5.2762e-08
6.8200e+03,5.2748e-08
6.8300e+03,5.2734e-08
6.8400e+03,5.2721e-08
6.8500e+03,5.2707e-08
6.8600e+03,5.2694e-08
6.8700e+03,5.2682e-08
6.8800e+03,5.2670e-08
6.8900e+03,5.2658e-08
6.9000e+03,5.2646e-08
6.9100e+03,5.2635e-08
6.9200e+03,5.2624e-08
6.9300e+03,5.2613e-08
6.9400e+03,5.2603e-08
6.9500e+03,5.2593e-08
6.9600e+03,5.2584e-08
6.9700e+03,5.2574e-08
6.9800e+03,5.2566e-08
6.9900e+03,5.2557e-08
7.0000e+03,5.2549e-08
7.0100e+03,5.2541e-08
7.0200e+03,5.2534e-08
7.0300e+03,5.2527e-08
7.0400e+03,5.2520e-08
7.0500e+03,5.2513e-08
7.0600e+03,5.2507e-08
7.0700e+03,5.2501e-08
7.0800e+03,5.2495e-08
7.0900e+03,5.2490e-08
7.1000e+03,5.2485e-08
7.1100e+03,5.2480e-08
7.1200e+03,5.2476e-08
7.1300e+03,5.2471e-08
7.1400e+03,5.2467e-08
7.1500e+03,5.2463e-08
7.1600e+03,5.2459e-08
7.1700e+03,5.2456e-08
7.1800e+03,5.2453e-08
7.1900e+03,5.2449e-08
7.2000e+03,5.2446e-08
7.2100e+03,5.2444e-08
7.2200e+03,5.2441e-08
7.2300e+03,5.2438e-08
7.2400e+03,5.2436e-08
7.2500e+03,5.2434e-08
7.2600e+03,5.2432e-08
7.2700e+03,5.2429e-08
7.2800e+03,5.2427e-08
7.2900e+03,5.2425e-08
7.3000e+03,5.2424e-08
7.3100e+03,5.2422e-08
7.3200e+03,5.2420e-08
7.3300e+03,5.2418e-08
7.3400e+03,5.2417e-08
7.3500e+03,5.2415e-08
7.3600e+03,5.2413e-08
7.3700e+03,5.2411e-08
7.3800e+03,5.2410e-08
7.3900e+03,5.2408e-08
7.4000e+03,5.2406e-08
7.4100e+03,5.2405e-08
7.4200e+03,5.2403e-08
7.4300e+03,5.2401e-08
7.4400e+03,5.2399e-08
7.4500e+03,5.2397e-08
7.4600e+03,5.2395e-08
7.4700e+03,5.2393e-08
7.4800e+03,5.2391e-08
7.4900e+03,5.2388e-08
7.5000e+03,5.2386e-08
7.5100e+03,5.2383e-08
7.5200e+03,5.2380e-08
7.5300e+03,5.2378e-08
7.5400e+03,5.2375e-08
7.5500e+03,5.2371e-08
7.5600e+03,5.2368e-08
7.5700e+03,5.2364e-08
7.5800e+03,5.2361e-08
7.5900e+03,5.2357e-08
7.6000e+03,5.2353e-08
7.6100e+03,5.2348e-08
7.6200e+03,5.2344e-08
7.6300e+03,5.2339e-08
7.6400e+03,5.2334e-08
7.6500e+03,5.2329e-08
7.6600e+03,5.2324e-08
7.6700e+03,5.2318e-08
7.6800e+03,5.2312e-08
7.6900e+03,5.2306e-08
7.7000e+03,5.2300e-08
7.7100e+03,5.2294e-08
7.7200e+03,5.2287e-08
7.7300e+03,5.2280e-08
7.7400e+03,5.2273e-08
7.7500e+03,5.2265e-08
7.7600e+03,5.2258e-08
7.7700e+03,5.2250e-08
7.7800e+03,5.2242e-08
7.7900e+03,5.2234e-08
7.8000e+03,5.2226e-08
7.8100e+03,5.2218e-08
7.8200e+03,5.2209e-08
7.8300e+03,5.2200e-08
7.8400e+03,5.2191e-08
7.8500e+03,5.2183e-08
7.8600e+03,5.2173e-08
7.8700e+03,5.2164e-08
7.8800e+03,5.2155e-08
7.8900e+03,5.2146e-08
7.9000e+03,5.2136e-08
7.9100e+03,5.2127e-08
7.9200e+03,5.2117e-08
7.9300e+03,5.2108e-08
7.9400e+03,5.2098e-08
7.9500e+03,5.2089e-08
7.9600e+03,5.2079e-08
7.9700e+03,5.2069e-08
7.9800e+03,5.2060e-08
7.9900e+03,5.2050e-08
8.0000e+03,5.2041e-08
8.0100e+03,5.2031e-08
8.0200e+03,5.2022e-08
8.0300e+03,5.2012e-08
8.0400e+03,5.2003e-08
8.0500e+03,5.1993e-08
8.0600e+03,5.1984e-08
8.0700e+03,5.1975e-08
8.0800e+03,5.1965e-08
8.0900e+03,5.1956e-08
8.1000e+03,5.1947e-08
8.1100e+03,5.1937e-08
8.1200e+03,5.1928e-08
8.1300e+03,5.1918e-08
8.1400e+03,5.1909e-08
8.1500e+03,5.1900e-08
8.1600e+03,5.1890e-08
8.1700e+03,5.1880e-08
8.1800e+03,5.1871e-08
8.1900e+03,5.1861e-08
8.2000e+03,5.1851e-08
8.2100e+03,5.1841e-08
8.2200e+03,5.1830e-08
8.2300e+03,5.1820e-08
8.2400e+03,5.1809e-08
8.2500e+03,5.1798e-08
8.2600e+03,5.1787e-08
8.2700e+03,5.1776e-08
8.2800e+03,5.1764e-08
8.2900e+03,5.1752e-08
8.3000e+03,5.1739e-08
8.3100e+03,5.1727e-08
8.3200e+03,5.1714e-08
8.3300e+03,5.1700e-08
8.3400e+03,5.1686e-08
8.3500e+03,5.1672e-08
8.3600e+03,5.1658e-08
8.3700e+03,5.1643e-08
8.3800e+03,5.1627e-08
8.3900e+03,5.1611e-08
8.4000e+03,5.1595e-08
8.4100e+03,5.1579e-08
8.4200e+03,5.1561e-08
8.4300e+03,5.1544e-08
8.4400e+03,5.1526e-08
8.4500e+03,5.1508e-08
8.4600e+03,5.1489e-08
8.4700e+03,5.1470e-08
8.4800e+03,5.1450e-08
8.4900e+03,5.1431e-08
8.5000e+03,5.1410e-08
8.5100e+03,5.1390e-08
8.5200e+03,5.1369e-08
8.5300e+03,5.1348e-08
8.5400e+03,5.1327e-08
8.5500e+03,5.1306e-08
8.5600e+03,5.1284e-08
8.5700e+03,5.1262e-08
8.5800e+03,5.1241e-08
8.5900e+03,5.1219e-08
8.6000e+03,5.1197e-08
8.6100e+03,5.1175e-08
8.6200e+03,5.1153e-08
8.6300e+03,5.1132e-08
8.6400e+03,5.1110e-08
8.6500e+03,5.1089e-08
8.6600e+03,5.1067e-08
8.6700e+03,5.1046e-08
8.6800e+03,5.1026e-08
8.6900e+03,5.1006e-08
8.7000e+03,5.0986e-08
8.7100e+03,5.0966e-08
8.7200e+03,5.0947e-08
8.7300e+03,5.0929e-08
8.7400e+03,5.0911e-08
8.7500e+03,5.0894e-08
8.7600e+03,5.0877e-08
8.7700e+03,5.0861e-08
8.7800e+03,5.0846e-08
8.7900e+03,5.0831e-08
8.8000e+03,5.0817e-08
8.8100e+03,5.0804e-08
8.8200e+03,5.0792e-08
8.8300e+03,5.0780e-08
8.8400e+03,5.0770e-08
8.8500e+03,5.0760e-08
8.8600e+03,5.0751e-08
8.8700e+03,5.0743e-08
8.8800e+03,5.0736e-08
8.8900e+03,5.0730e-08
8.9000e+03,5.0724e-08
8.9100e+03,5.0720e-08
8.9200e+03,5.0716e-08
8.9300e+03,5.0713e-08
8.9400e+03,5.0712e-08
8.9500e+03,5.0711e-08
8.9600e+03,5.0711e-08
8.9700e+03,5.0711e-08
8.9800e+03,5.0713e-08
8.9900e+03,5.0715e-08
9.0000e+03,5.0718e-08
9.0100e+03,5.0722e-08
9.0200e+03,5.0726e-08
9.0300e+03,5.0732e-08
9.0400e+03,5.0737e-08
9.0500e+03,5.0744e-08
9.0600e+03,5.0750e-08
9.0700e+03,5.0758e-08
