# Time , Flux-Flux
0.0000e+00,3.6259e-13
1.0000e+01,3.6212e-13
2.0000e+01,3.6072e-13
3.0000e+01,3.5840e-13
4.0000e+01,3.5518e-13
5.0000e+01,3.5112e-13
6.0000e+01,3.4624e-13
7.0000e+01,3.4061e-13
8.0000e+01,3.3428e-13
9.0000e+01,3.2732e-13
1.0000e+02,3.1980e-13
1.1000e+02,3.1178e-13
1.2000e+02,3.0335e-13
1.3000e+02,2.9457e-13
1.4000e+02,2.8551e-13
1.5000e+02,2.7624e-13
1.6000e+02,2.6683e-13
1.7000e+02,2.5733e-13
1.8000e+02,2.4780e-13
1.9000e+02,2.3831e-13
2.0000e+02,2.2888e-13
2.1000e+02,2.1957e-13
2.2000e+02,2.1040e-13
2.3000e+02,2.0143e-13
2.4000e+02,1.9266e-13
2.5000e+02,1.8413e-13
2.6000e+02,1.7584e-13
2.7000e+02,1.6783e-13
2.8000e+02,1.6010e-13
2.9000e+02,1.5265e-13
3.0000e+02,1.4549e-13
3.1000e+02,1.3863e-13
3.2000e+02,1.3207e-13
3.3000e+02,1.2580e-13
3.4000e+02,1.1983e-13
3.5000e+02,1.1414e-13
3.6000e+02,1.0874e-13
3.7000e+02,1.0361e-13
3.8000e+02,9.8753e-14
3.9000e+02,9.4157e-14
4.0000e+02,8.9813e-14
4.1000e+02,8.5713e-14
4.2000e+02,8.1848e-14
4.3000e+02,7.8208e-14
4.4000e+02,7.4784e-14
4.5000e+02,7.1566e-14
4.6000e+02,6.8543e-14
4.7000e+02,6.5707e-14
4.8000e+02,6.3047e-14
4.9000e+02,6.0555e-14
5.0000e+02,5.8220e-14
5.1000e+02,5.6033e-14
5.2000e+02,5.3986e-14
5.3000e+02,5.2069e-14
5.4000e+02,5.0275e-14
5.5000e+02,4.8594e-14
5.6000e+02,4.7020e-14
5.7000e+02,4.5544e-14
5.8000e+02,4.4159e-14
5.9000e+02,4.2858e-14
6.0000e+02,4.1634e-14
6.1000e+02,4.0479e-14
6.2000e+02,3.9388e-14
6.3000e+02,3.8353e-14
6.4000e+02,3.7369e-14
6.5000e+02,3.6428e-14
6.6000e+02,3.5526e-14
6.7000e+02,3.4656e-14
6.8000e+02,3.3812e-14
6.9000e+02,3.2989e-14
7.0000e+02,3.2183e-14
7.1000e+02,3.1388e-14
7.2000e+02,3.0602e-14
7.3000e+02,2.9822e-14
7.4000e+02,2.9044e-14
7.5000e+02,2.8267e-14
7.6000e+02,2.7492e-14
7.7000e+02,2.6718e-14
7.8000e+02,2.5948e-14
7.9000e+02,2.5183e-14
8.0000e+02,2.4428e-14
8.1000e+02,2.3687e-14
8.2000e+02,2.2965e-14
8.3000e+02,2.2268e-14
8.4000e+02,2.1603e-14
8.5000e+02,2.0976e-14
8.6000e+02,2.0395e-14
8.7000e+02,1.9865e-14
8.8000e+02,1.9395e-14
8.9000e+02,1.8989e-14
9.0000e+02,1.8653e-14
9.1000e+02,1.8390e-14
9.2000e+02,1.8205e-14
9.3000e+02,1.8099e-14
9.4000e+02,1.8073e-14
9.5000e+02,1.8125e-14
9.6000e+02,1.8253e-14
9.7000e+02,1.8453e-14
9.8000e+02,1.8720e-14
9.9000e+02,1.9047e-14
1.0000e+03,1.9426e-14
1.0100e+03,1.9848e-14
1.0200e+03,2.0303e-14
1.0300e+03,2.0781e-14
1.0400e+03,2.1270e-14
1.0500e+03,2.1759e-14
1.0600e+03,2.2238e-14
1.0700e+03,2.2694e-14
1.0800e+03,2.3118e-14
1.0900e+03,2.3498e-14
1.1000e+03,2.3827e-14
1.1100e+03,2.4095e-14
1.1200e+03,2.4295e-14
1.1300e+03,2.4421e-14
1.1400e+03,2.4468e-14
1.1500e+03,2.4433e-14
1.1600e+03,2.4311e-14
1.1700e+03,2.4103e-14
1.1800e+03,2.3808e-14
1.1900e+03,2.3427e-14
1.2000e+03,2.2962e-14
1.2100e+03,2.2415e-14
1.2200e+03,2.1790e-14
1.2300e+03,2.1092e-14
1.2400e+03,2.0325e-14
1.2500e+03,1.9496e-14
1.2600e+03,1.8611e-14
1.2700e+03,1.7675e-14
1.2800e+03,1.6696e-14
1.2900e+03,1.5680e-14
1.3000e+03,1.4635e-14
1.3100e+03,1.3566e-14
1.3200e+03,1.2481e-14
1.3300e+03,1.1385e-14
1.3400e+03,1.0286e-14
1.3500e+03,9.1871e-15
1.3600e+03,8.0951e-15
1.3700e+03,7.0143e-15
1.3800e+03,5.9487e-15
1.3900e+03,4.9019e-15
1.4000e+03,3.8771e-15
1.4100e+03,2.8767e-15
1.4200e+03,1.9027e-15
1.4300e+03,9.5689e-16
1.4400e+03,4.0260e-17
1.4500e+03,-8.4636e-16
1.4600e+03,-1.7025e-15
1.4700e+03,-2.5279e-15
1.4800e+03,-3.3225e-15
1.4900e+03,-4.0865e-15
1.5000e+03,-4.8199e-15
1.5100e+03,-5.5230e-15
1.5200e+03,-6.1960e-15
1.5300e+03,-6.8389e-15
1.5400e+03,-7.4518e-15
1.5500e+03,-8.0347e-15
1.5600e+03,-8.5873e-15
1.5700e+03,-9.1095e-15
1.5800e+03,-9.6008e-15
1.5900e+03,-1.0061e-14
1.6000e+03,-1.0489e-14
1.6100e+03,-1.0885e-14
1.6200e+03,-1.1248e-14
1.6300e+03,-1.1577e-14
1.6400e+03,-1.1873e-14
1.6500e+03,-1.2136e-14
1.6600e+03,-1.2364e-14
1.6700e+03,-1.2559e-14
1.6800e+03,-1.2720e-14
1.6900e+03,-1.2848e-14
1.7000e+03,-1.2945e-14
1.7100e+03,-1.3010e-14
1.7200e+03,-1.3046e-14
1.7300e+03,-1.3055e-14
1.7400e+03,-1.3037e-14
1.7500e+03,-1.2995e-14
1.7600e+03,-1.2930e-14
1.7700e+03,-1.2846e-14
1.7800e+03,-1.2743e-14
1.7900e+03,-1.2623e-14
1.8000e+03,-1.2489e-14
1.8100e+03,-1.2342e-14
1.8200e+03,-1.2183e-14
1.8300e+03,-1.2013e-14
1.8400e+03,-1.1833e-14
1.8500e+03,-1.1644e-14
1.8600e+03,-1.1445e-14
1.8700e+03,-1.1236e-14
1.8800e+03,-1.1016e-14
1.8900e+03,-1.0786e-14
1.9000e+03,-1.0542e-14
1.9100e+03,-1.0284e-14
1.9200e+03,-1.0011e-14
1.9300e+03,-9.7206e-15
1.9400e+03,-9.4109e-15
1.9500e+03,-9.0804e-15
1.9600e+03,-8.7275e-15
1.9700e+03,-8.3506e-15
1.9800e+03,-7.9484e-15
1.9900e+03,-7.5198e-15
2.0000e+03,-7.0642e-15
2.0100e+03,-6.5811e-15
2.0200e+03,-6.0705e-15
2.0300e+03,-5.5329e-15
2.0400e+03,-4.9691e-15
2.0500e+03,-4.3805e-15
2.0600e+03,-3.7690e-15
2.0700e+03,-3.1369e-15
2.0800e+03,-2.4868e-15
2.0900e+03,-1.8220e-15
2.1000e+03,-1.1461e-15
2.1100e+03,-4.6286e-16
2.1200e+03,2.2351e-16
2.1300e+03,9.0866e-16
2.1400e+03,1.5881e-15
2.1500e+03,2.2574e-15
2.1600e+03,2.9120e-15
2.1700e+03,3.5475e-15
2.1800e+03,4.1599e-15
2.1900e+03,4.7452e-15
2.2000e+03,5.2999e-15
2.2100e+03,5.8209e-15
2.2200e+03,6.3055e-15
2.2300e+03,6.7515e-15
2.2400e+03,7.1572e-15
2.2500e+03,7.5213e-15
2.2600e+03,7.8433e-15
2.2700e+03,8.1229e-15
2.2800e+03,8.3603e-15
2.2900e+03,8.5562e-15
2.3000e+03,8.7118e-15
2.3100e+03,8.8284e-15
2.3200e+03,8.9076e-15
2.3300e+03,8.9516e-15
2.3400e+03,8.9623e-15
2.3500e+03,8.9421e-15
2.3600e+03,8.8933e-15
2.3700e+03,8.8185e-15
2.3800e+03,8.7199e-15
2.3900e+03,8.6001e-15
2.4000e+03,8.4615e-15
2.4100e+03,8.3064e-15
2.4200e+03,8.1371e-15
2.4300e+03,7.9557e-15
2.4400e+03,7.7644e-15
2.4500e+03,7.5652e-15
2.4600e+03,7.3599e-15
2.4700e+03,7.1503e-15
2.4800e+03,6.9382e-15
2.4900e+03,6.7253e-15
2.5000e+03,6.5130e-15
2.5100e+03,6.3029e-15
2.5200e+03,6.0965e-15
2.5300e+03,5.8952e-15
2.5400e+03,5.7004e-15
2.5500e+03,5.5135e-15
2.5600e+03,5.3358e-15
2.5700e+03,5.1687e-15
2.5800e+03,5.0136e-15
2.5900e+03,4.8716e-15
2.6000e+03,4.7441e-15
2.6100e+03,4.6324e-15
2.6200e+03,4.5375e-15
2.6300e+03,4.4608e-15
2.6400e+03,4.4031e-15
2.6500e+03,4.3656e-15
2.6600e+03,4.3490e-15
2.6700e+03,4.3542e-15
2.6800e+03,4.3817e-15
2.6900e+03,4.4320e-15
2.7000e+03,4.5054e-15
2.7100e+03,4.6019e-15
2.7200e+03,4.7215e-15
2.7300e+03,4.8638e-15
2.7400e+03,5.0283e-15
2.7500e+03,5.2142e-15
2.7600e+03,5.4206e-15
2.7700e+03,5.6462e-15
2.7800e+03,5.8897e-15
2.7900e+03,6.1495e-15
2.8000e+03,6.4237e-15
2.8100e+03,6.7104e-15
2.8200e+03,7.0075e-15
2.8300e+03,7.3126e-15
2.8400e+03,7.6235e-15
2.8500e+03,7.9377e-15
2.8600e+03,8.2526e-15
2.8700e+03,8.5658e-15
2.8800e+03,8.8748e-15
2.8900e+03,9.1772e-15
2.9000e+03,9.4706e-15
2.9100e+03,9.7528e-15
2.9200e+03,1.0022e-14
2.9300e+03,1.0276e-14
2.9400e+03,1.0513e-14
2.9500e+03,1.0733e-14
2.9600e+03,1.0933e-14
2.9700e+03,1.1114e-14
2.9800e+03,1.1274e-14
2.9900e+03,1.1414e-14
3.0000e+03,1.1533e-14
3.0100e+03,1.1632e-14
3.0200e+03,1.1712e-14
3.0300e+03,1.1773e-14
3.0400e+03,1.1815e-14
3.0500e+03,1.1841e-14
3.0600e+03,1.1851e-14
3.0700e+03,1.1846e-14
3.0800e+03,1.1827e-14
3.0900e+03,1.1796e-14
3.1000e+03,1.1753e-14
3.1100e+03,1.1699e-14
3.1200e+03,1.1636e-14
3.1300e+03,1.1562e-14
3.1400e+03,1.1480e-14
3.1500e+03,1.1389e-14
3.1600e+03,1.1289e-14
3.1700e+03,1.1180e-14
3.1800e+03,1.1062e-14
3.1900e+03,1.0936e-14
3.2000e+03,1.0800e-14
3.2100e+03,1.0654e-14
3.2200e+03,1.0498e-14
3.2300e+03,1.0331e-14
3.2400e+03,1.0154e-14
3.2500e+03,9.9660e-15
3.2600e+03,9.7669e-15
3.2700e+03,9.5568e-15
3.2800e+03,9.3358e-15
3.2900e+03,9.1040e-15
3.3000e+03,8.8618e-15
3.3100e+03,8.6096e-15
3.3200e+03,8.3479e-15
3.3300e+03,8.0773e-15
3.3400e+03,7.7985e-15
3.3500e+03,7.5120e-15
3.3600e+03,7.2188e-15
3.3700e+03,6.9195e-15
3.3800e+03,6.6148e-15
3.3900e+03,6.3057e-15
3.4000e+03,5.9927e-15
3.4100e+03,5.6767e-15
3.4200e+03,5.3583e-15
3.4300e+03,5.0382e-15
3.4400e+03,4.7171e-15
3.4500e+03,4.3955e-15
3.4600e+03,4.0741e-15
3.4700e+03,3.7533e-15
3.4800e+03,3.4337e-15
3.4900e+03,3.1158e-15
3.5000e+03,2.7999e-15
3.5100e+03,2.4866e-15
3.5200e+03,2.1761e-15
3.5300e+03,1.8688e-15
3.5400e+03,1.5651e-15
3.5500e+03,1.2653e-15
3.5600e+03,9.6974e-16
3.5700e+03,6.7864e-16
3.5800e+03,3.9233e-16
3.5900e+03,1.1113e-16
3.6000e+03,-1.6463e-16
3.6100e+03,-4.3459e-16
3.6200e+03,-6.9833e-16
3.6300e+03,-9.5540e-16
3.6400e+03,-1.2053e-15
3.6500e+03,-1.4474e-15
3.6600e+03,-1.6812e-15
3.6700e+03,-1.9059e-15
3.6800e+03,-2.1208e-15
3.6900e+03,-2.3250e-15
3.7000e+03,-2.5177e-15
3.7100e+03,-2.6980e-15
3.7200e+03,-2.8651e-15
3.7300e+03,-3.0180e-15
3.7400e+03,-3.1560e-15
3.7500e+03,-3.2780e-15
3.7600e+03,-3.3835e-15
3.7700e+03,-3.4717e-15
3.7800e+03,-3.5420e-15
3.7900e+03,-3.5941e-15
3.8000e+03,-3.6277e-15
3.8100e+03,-3.6426e-15
3.8200e+03,-3.6390e-15
3.8300e+03,-3.6171e-15
3.8400e+03,-3.5774e-15
3.8500e+03,-3.5206e-15
3.8600e+03,-3.4477e-15
3.8700e+03,-3.3596e-15
3.8800e+03,-3.2577e-15
3.8900e+03,-3.1435e-15
3.9000e+03,-3.0184e-15
3.9100e+03,-2.8842e-15
3.9200e+03,-2.7425e-15
3.9300e+03,-2.5953e-15
3.9400e+03,-2.4443e-15
3.9500e+03,-2.2912e-15
3.9600e+03,-2.1377e-15
3.9700e+03,-1.9855e-15
3.9800e+03,-1.8359e-15
3.9900e+03,-1.6903e-15
4.0000e+03,-1.5498e-15
4.0100e+03,-1.4154e-15
4.0200e+03,-1.2878e-15
4.0300e+03,-1.1677e-15
4.0400e+03,-1.0555e-15
4.0500e+03,-9.5133e-16
4.0600e+03,-8.5530e-16
4.0700e+03,-7.6733e-16
4.0800e+03,-6.8719e-16
4.0900e+03,-6.1457e-16
4.1000e+03,-5.4906e-16
4.1100e+03,-4.9018e-16
4.1200e+03,-4.3742e-16
4.1300e+03,-3.9024e-16
4.1400e+03,-3.4808e-16
4.1500e+03,-3.1042e-16
4.1600e+03,-2.7674e-16
4.1700e+03,-2.4656e-16
4.1800e+03,-2.1944e-16
4.1900e+03,-1.9498e-16
4.2000e+03,-1.7283e-16
4.2100e+03,-1.5268e-16
4.2200e+03,-1.3425e-16
4.2300e+03,-1.1731e-16
4.2400e+03,-1.0167e-16
4.2500e+03,-8.7151e-17
4.2600e+03,-7.3620e-17
4.2700e+03,-6.0958e-17
4.2800e+03,-4.9065e-17
4.2900e+03,-3.7864e-17
4.3000e+03,-2.7293e-17
4.3100e+03,-1.7307e-17
4.3200e+03,-7.8763e-18
4.3300e+03,1.0163e-18
4.3400e+03,9.3752e-18
4.3500e+03,1.7194e-17
4.3600e+03,2.4459e-17
4.3700e+03,3.1150e-17
4.3800e+03,3.7243e-17
4.3900e+03,4.2713e-17
4.4000e+03,4.7536e-17
4.4100e+03,5.1693e-17
4.4200e+03,5.5166e-17
4.4300e+03,5.7943e-17
4.4400e+03,6.0020e-17
4.4500e+03,6.1391e-17
4.4600e+03,6.2060e-17
4.4700e+03,6.2027e-17
4.4800e+03,6.1296e-17
4.4900e+03,5.9869e-17
4.5000e+03,5.7748e-17
4.5100e+03,5.4932e-17
4.5200e+03,5.1422e-17
4.5300e+03,4.7220e-17
4.5400e+03,4.2331e-17
4.5500e+03,3.6771e-17
4.5600e+03,3.0567e-17
4.5700e+03,2.3762e-17
4.5800e+03,1.6421e-17
4.5900e+03,8.6361e-18
4.6000e+03,5.3131e-19
4.6100e+03,-7.7354e-18
4.6200e+03,-1.5967e-17
4.6300e+03,-2.3926e-17
4.6400e+03,-3.1331e-17
4.6500e+03,-3.7860e-17
4.6600e+03,-4.3145e-17
4.6700e+03,-4.6782e-17
4.6800e+03,-4.8323e-17
4.6900e+03,-4.7289e-17
4.7000e+03,-4.3166e-17
4.7100e+03,-3.5412e-17
4.7200e+03,-2.3462e-17
4.7300e+03,-6.7297e-18
4.7400e+03,1.5389e-17
4.7500e+03,4.3513e-17
4.7600e+03,7.8270e-17
4.7700e+03,1.2030e-16
4.7800e+03,1.7024e-16
4.7900e+03,2.2875e-16
4.8000e+03,2.9647e-16
4.8100e+03,3.7402e-16
4.8200e+03,4.6204e-16
4.8300e+03,5.6111e-16
4.8400e+03,6.7176e-16
4.8500e+03,7.9449e-16
4.8600e+03,9.2968e-16
4.8700e+03,1.0776e-15
4.8800e+03,1.2384e-15
4.8900e+03,1.4120e-15
4.9000e+03,1.5981e-15
4.9100e+03,1.7963e-15
4.9200e+03,2.0057e-15
4.9300e+03,2.2253e-15
4.9400e+03,2.4537e-15
4.9500e+03,2.6891e-15
4.9600e+03,2.9296e-15
4.9700e+03,3.1729e-15
4.9800e+03,3.4163e-15
4.9900e+03,3.6572e-15
5.0000e+03,3.8926e-15
5.0100e+03,4.1195e-15
5.0200e+03,4.3350e-15
5.0300e+03,4.5362e-15
5.0400e+03,4.7204e-15
5.0500e+03,4.8854e-15
5.0600e+03,5.0292e-15
5.0700e+03,5.1503e-15
5.0800e+03,5.2476e-15
5.0900e+03,5.3209e-15
5.1000e+03,5.3702e-15
5.1100e+03,5.3964e-15
5.1200e+03,5.4007e-15
5.1300e+03,5.3849e-15
5.1400e+03,5.3511e-15
5.1500e+03,5.3021e-15
5.1600e+03,5.2403e-15
5.1700e+03,5.1686e-15
5.1800e+03,5.0898e-15
5.1900e+03,5.0064e-15
5.2000e+03,4.9207e-15
5.2100e+03,4.8345e-15
5.2200e+03,4.7492e-15
5.2300e+03,4.6657e-15
5.2400e+03,4.5844e-15
5.2500e+03,4.5050e-15
5.2600e+03,4.4267e-15
5.2700e+03,4.3483e-15
5.2800e+03,4.2681e-15
5.2900e+03,4.1841e-15
5.3000e+03,4.0941e-15
5.3100e+03,3.9960e-15
5.3200e+03,3.8876e-15
5.3300e+03,3.7667e-15
5.3400e+03,3.6318e-15
5.3500e+03,3.4816e-15
5.3600e+03,3.3151e-15
5.3700e+03,3.1322e-15
5.3800e+03,2.9331e-15
5.3900e+03,2.7189e-15
5.4000e+03,2.4912e-15
5.4100e+03,2.2519e-15
5.4200e+03,2.0039e-15
5.4300e+03,1.7501e-15
5.4400e+03,1.4940e-15
5.4500e+03,1.2392e-15
5.4600e+03,9.8940e-16
5.4700e+03,7.4836e-16
5.4800e+03,5.1959e-16
5.4900e+03,3.0636e-16
5.5000e+03,1.1158e-16
5.5100e+03,-6.2335e-17
5.5200e+03,-2.1350e-16
5.5300e+03,-3.4063e-16
5.5400e+03,-4.4309e-16
5.5500e+03,-5.2088e-16
5.5600e+03,-5.7466e-16
5.5700e+03,-6.0570e-16
5.5800e+03,-6.1584e-16
5.5900e+03,-6.0747e-16
5.6000e+03,-5.8341e-16
5.6100e+03,-5.4686e-16
5.6200e+03,-5.0131e-16
5.6300e+03,-4.5048e-16
5.6400e+03,-3.9816e-16
5.6500e+03,-3.4821e-16
5.6600e+03,-3.0438e-16
5.6700e+03,-2.7030e-16
5.6800e+03,-2.4934e-16
5.6900e+03,-2.4455e-16
5.7000e+03,-2.5857e-16
5.7100e+03,-2.9359e-16
5.7200e+03,-3.5124e-16
5.7300e+03,-4.3257e-16
5.7400e+03,-5.3800e-16
5.7500e+03,-6.6727e-16
5.7600e+03,-8.1943e-16
5.7700e+03,-9.9284e-16
5.7800e+03,-1.1852e-15
5.7900e+03,-1.3935e-15
5.8000e+03,-1.6142e-15
5.8100e+03,-1.8432e-15
5.8200e+03,-2.0760e-15
5.8300e+03,-2.3078e-15
5.8400e+03,-2.5334e-15
5.8500e+03,-2.7477e-15
5.8600e+03,-2.9455e-15
5.8700e+03,-3.1222e-15
5.8800e+03,-3.2729e-15
5.8900e+03,-3.3938e-15
5.9000e+03,-3.4814e-15
5.9100e+03,-3.5330e-15
5.9200e+03,-3.5468e-15
5.9300e+03,-3.5218e-15
5.9400e+03,-3.4580e-15
5.9500e+03,-3.3566e-15
5.9600e+03,-3.2195e-15
5.9700e+03,-3.0499e-15
5.9800e+03,-2.8518e-15
5.9900e+03,-2.6299e-15
6.0000e+03,-2.3899e-15
6.0100e+03,-2.1378e-15
6.0200e+03,-1.8804e-15
6.0300e+03,-1.6246e-15
6.0400e+03,-1.3774e-15
6.0500e+03,-1.1456e-15
6.0600e+03,-9.3587e-16
6.0700e+03,-7.5436e-16
6.0800e+03,-6.0651e-16
6.0900e+03,-4.9696e-16
6.1000e+03,-4.2936e-16
6.1100e+03,-4.0629e-16
6.1200e+03,-4.2913e-16
6.1300e+03,-4.9804e-16
6.1400e+03,-6.1193e-16
6.1500e+03,-7.6850e-16
6.1600e+03,-9.6425e-16
6.1700e+03,-1.1946e-15
6.1800e+03,-1.4542e-15
6.1900e+03,-1.7365e-15
6.2000e+03,-2.0348e-15
6.2100e+03,-2.3416e-15
6.2200e+03,-2.6494e-15
6.2300e+03,-2.9505e-15
6.2400e+03,-3.2376e-15
6.2500e+03,-3.5036e-15
6.2600e+03,-3.7420e-15
6.2700e+03,-3.9471e-15
6.2800e+03,-4.1137e-15
6.2900e+03,-4.2380e-15
6.3000e+03,-4.3170e-15
6.3100e+03,-4.3488e-15
6.3200e+03,-4.3325e-15
6.3300e+03,-4.2684e-15
6.3400e+03,-4.1579e-15
6.3500e+03,-4.0031e-15
6.3600e+03,-3.8072e-15
6.3700e+03,-3.5743e-15
6.3800e+03,-3.3090e-15
6.3900e+03,-3.0165e-15
6.4000e+03,-2.7024e-15
6.4100e+03,-2.3728e-15
6.4200e+03,-2.0335e-15
6.4300e+03,-1.6909e-15
6.4400e+03,-1.3509e-15
6.4500e+03,-1.0193e-15
6.4600e+03,-7.0159e-16
6.4700e+03,-4.0290e-16
6.4800e+03,-1.2781e-16
6.4900e+03,1.1964e-16
6.5000e+03,3.3600e-16
6.5100e+03,5.1844e-16
6.5200e+03,6.6479e-16
6.5300e+03,7.7352e-16
6.5400e+03,8.4373e-16
6.5500e+03,8.7514e-16
6.5600e+03,8.6803e-16
6.5700e+03,8.2323e-16
6.5800e+03,7.4205e-16
6.5900e+03,6.2621e-16
6.6000e+03,4.7782e-16
6.6100e+03,2.9932e-16
6.6200e+03,9.3388e-17
6.6300e+03,-1.3707e-16
6.6400e+03,-3.8898e-16
6.6500e+03,-6.5916e-16
6.6600e+03,-9.4431e-16
6.6700e+03,-1.2411e-15
6.6800e+03,-1.5461e-15
6.6900e+03,-1.8560e-15
6.7000e+03,-2.1674e-15
6.7100e+03,-2.4770e-15
6.7200e+03,-2.7813e-15
6.7300e+03,-3.0772e-15
6.7400e+03,-3.3614e-15
6.7500e+03,-3.6309e-15
6.7600e+03,-3.8826e-15
6.7700e+03,-4.1136e-15
6.7800e+03,-4.3212e-15
6.7900e+03,-4.5027e-15
6.8000e+03,-4.6558e-15
6.8100e+03,-4.7783e-15
6.8200e+03,-4.8683e-15
6.8300e+03,-4.9240e-15
6.8400e+03,-4.9442e-15
6.8500e+03,-4.9278e-15
6.8600e+03,-4.8740e-15
6.8700e+03,-4.7825e-15
6.8800e+03,-4.6534e-15
6.8900e+03,-4.4868e-15
6.9000e+03,-4.2835e-15
6.9100e+03,-4.0447e-15
6.9200e+03,-3.7716e-15
6.9300e+03,-3.4659e-15
6.9400e+03,-3.1298e-15
6.9500e+03,-2.7654e-15
6.9600e+03,-2.3753e-15
6.9700e+03,-1.9622e-15
6.9800e+03,-1.5291e-15
6.9900e+03,-1.0790e-15
7.0000e+03,-6.1507e-16
7.0100e+03,-1.4061e-16
7.0200e+03,3.4115e-16
7.0300e+03,8.2695e-16
7.0400e+03,1.3136e-15
7.0500e+03,1.7980e-15
7.0600e+03,2.2770e-15
7.0700e+03,2.7480e-15
7.0800e+03,3.2081e-15
7.0900e+03,3.6549e-15
7.1000e+03,4.0862e-15
7.1100e+03,4.4999e-15
7.1200e+03,4.8943e-15
7.1300e+03,5.2678e-15
7.1400e+03,5.6191e-15
7.1500e+03,5.9472e-15
7.1600e+03,6.2514e-15
7.1700e+03,6.5309e-15
7.1800e+03,6.7854e-15
7.1900e+03,7.0147e-15
7.2000e+03,7.2187e-15
7.2100e+03,7.3975e-15
7.2200e+03,7.5511e-15
7.2300e+03,7.6799e-15
7.2400e+03,7.7840e-15
7.2500e+03,7.8637e-15
7.2600e+03,7.9194e-15
7.2700e+03,7.9512e-15
7.2800e+03,7.9594e-15
7.2900e+03,7.9442e-15
7.3000e+03,7.9058e-15
7.3100e+03,7.8444e-15
7.3200e+03,7.7599e-15
7.3300e+03,7.6527e-15
7.3400e+03,7.5227e-15
7.3500e+03,7.3701e-15
7.3600e+03,7.1951e-15
7.3700e+03,6.9979e-15
7.3800e+03,6.7787e-15
7.3900e+03,6.5381e-15
7.4000e+03,6.2763e-15
7.4100e+03,5.9941e-15
7.4200e+03,5.6922e-15
7.4300e+03,5.3714e-15
7.4400e+03,5.0329e-15
7.4500e+03,4.6776e-15
7.4600e+03,4.3071e-15
7.4700e+03,3.9226e-15
7.4800e+03,3.5259e-15
7.4900e+03,3.1187e-15
7.5000e+03,2.7027e-15
7.5100e+03,2.2800e-15
7.5200e+03,1.8525e-15
7.5300e+03,1.4223e-15
7.5400e+03,9.9146e-16
7.5500e+03,5.6216e-16
7.5600e+03,1.3649e-16
7.5700e+03,-2.8346e-16
7.5800e+03,-6.9564e-16
7.5900e+03,-1.0981e-15
7.6000e+03,-1.4888e-15
7.6100e+03,-1.8660e-15
7.6200e+03,-2.2279e-15
7.6300e+03,-2.5727e-15
7.6400e+03,-2.8990e-15
7.6500e+03,-3.2051e-15
7.6600e+03,-3.4897e-15
7.6700e+03,-3.7512e-15
7.6800e+03,-3.9884e-15
7.6900e+03,-4.2000e-15
7.7000e+03,-4.3847e-15
7.7100e+03,-4.5413e-15
7.7200e+03,-4.6687e-15
7.7300e+03,-4.7657e-15
7.7400e+03,-4.8312e-15
7.7500e+03,-4.8641e-15
7.7600e+03,-4.8633e-15
7.7700e+03,-4.8280e-15
7.7800e+03,-4.7572e-15
7.7900e+03,-4.6501e-15
7.8000e+03,-4.5061e-15
7.8100e+03,-4.3247e-15
7.8200e+03,-4.1054e-15
7.8300e+03,-3.8482e-15
7.8400e+03,-3.5533e-15
7.8500e+03,-3.2209e-15
7.8600e+03,-2.8519e-15
7.8700e+03,-2.4472e-15
7.8800e+03,-2.0082e-15
7.8900e+03,-1.5366e-15
7.9000e+03,-1.0347e-15
7.9100e+03,-5.0490e-16
7.9200e+03,4.9860e-17
7.9300e+03,6.2625e-16
7.9400e+03,1.2206e-15
7.9500e+03,1.8287e-15
7.9600e+03,2.4462e-15
7.9700e+03,3.0683e-15
7.9800e+03,3.6899e-15
7.9900e+03,4.3055e-15
8.0000e+03,4.9094e-15
8.0100e+03,5.4957e-15
8.0200e+03,6.0584e-15
8.0300e+03,6.5911e-15
8.0400e+03,7.0877e-15
8.0500e+03,7.5418e-15
8.0600e+03,7.9471e-15
8.0700e+03,8.2975e-15
8.0800e+03,8.5871e-15
8.0900e+03,8.8103e-15
8.1000e+03,8.9617e-15
8.1100e+03,9.0366e-15
8.1200e+03,9.0308e-15
8.1300e+03,8.9404e-15
8.1400e+03,8.7626e-15
8.1500e+03,8.4952e-15
8.1600e+03,8.1366e-15
8.1700e+03,7.6863e-15
8.1800e+03,7.1445e-15
8.1900e+03,6.5123e-15
8.2000e+03,5.7918e-15
8.2100e+03,4.9858e-15
8.2200e+03,4.0981e-15
8.2300e+03,3.1333e-15
8.2400e+03,2.0965e-15
8.2500e+03,9.9407e-16
8.2600e+03,-1.6745e-16
8.2700e+03,-1.3807e-15
8.2800e+03,-2.6378e-15
8.2900e+03,-3.9306e-15
8.3000e+03,-5.2505e-15
8.3100e+03,-6.5888e-15
8.3200e+03,-7.9364e-15
8.3300e+03,-9.2845e-15
8.3400e+03,-1.0624e-14
8.3500e+03,-1.1947e-14
8.3600e+03,-1.3245e-14
8.3700e+03,-1.4509e-14
8.3800e+03,-1.5732e-14
8.3900e+03,-1.6906e-14
8.4000e+03,-1.8027e-14
8.4100e+03,-1.9086e-14
8.4200e+03,-2.0079e-14
8.4300e+03,-2.1000e-14
8.4400e+03,-2.1847e-14
8.4500e+03,-2.2614e-14
8.4600e+03,-2.3299e-14
8.4700e+03,-2.3899e-14
8.4800e+03,-2.4413e-14
8.4900e+03,-2.4838e-14
8.5000e+03,-2.5176e-14
8.5100e+03,-2.5424e-14
8.5200e+03,-2.5583e-14
8.5300e+03,-2.5655e-14
8.5400e+03,-2.5641e-14
8.5500e+03,-2.5542e-14
8.5600e+03,-2.5361e-14
8.5700e+03,-2.5100e-14
8.5800e+03,-2.4762e-14
8.5900e+03,-2.4350e-14
8.6000e+03,-2.3869e-14
8.6100e+03,-2.3320e-14
8.6200e+03,-2.2709e-14
8.6300e+03,-2.2039e-14
8.6400e+03,-2.1313e-14
8.6500e+03,-2.0535e-14
8.6600e+03,-1.9708e-14
8.6700e+03,-1.8836e-14
8.6800e+03,-1.7921e-14
8.6900e+03,-1.6966e-14
8.7000e+03,-1.5973e-14
8.7100e+03,-1.4944e-14
8.7200e+03,-1.3881e-14
8.7300e+03,-1.2786e-14
8.7400e+03,-1.1660e-14
8.7500e+03,-1.0505e-14
8.7600e+03,-9.3211e-15
8.7700e+03,-8.1106e-15
8.7800e+03,-6.8746e-15
8.7900e+03,-5.6145e-15
8.8000e+03,-4.3320e-15
8.8100e+03,-3.0289e-15
8.8200e+03,-1.7073e-15
8.8300e+03,-3.6950e-16
8.8400e+03,9.8186e-16
8.8500e+03,2.3439e-15
8.8600e+03,3.7136e-15
8.8700e+03,5.0874e-15
8.8800e+03,6.4618e-15
8.8900e+03,7.8328e-15
