# Time , Side-Flux
0.0000e+00,0.0000e+00
1.0000e+01,2.7176e-09
2.0000e+01,5.2510e-09
3.0000e+01,7.4681e-09
4.0000e+01,9.3112e-09
5.0000e+01,1.0787e-08
6.0000e+01,1.1939e-08
7.0000e+01,1.2826e-08
8.0000e+01,1.3505e-08
9.0000e+01,1.4025e-08
1.0000e+02,1.4424e-08
1.1000e+02,1.4733e-08
1.2000e+02,1.4973e-08
1.3000e+02,1.5162e-08
1.4000e+02,1.5312e-08
1.5000e+02,1.5432e-08
1.6000e+02,1.5529e-08
1.7000e+02,1.5608e-08
1.8000e+02,1.5673e-08
1.9000e+02,1.5726e-08
2.0000e+02,1.5771e-08
2.1000e+02,1.5808e-08
2.2000e+02,1.5839e-08
2.3000e+02,1.5865e-08
2.4000e+02,1.5886e-08
2.5000e+02,1.5905e-08
2.6000e+02,1.5921e-08
2.7000e+02,1.5935e-08
2.8000e+02,1.5949e-08
2.9000e+02,1.5961e-08
3.0000e+02,1.5972e-08
3.1000e+02,1.5983e-08
3.2000e+02,1.5994e-08
3.3000e+02,1.6003e-08
3.4000e+02,1.6012e-08
3.5000e+02,1.6020e-08
3.6000e+02,1.6027e-08
3.7000e+02,1.6034e-08
3.8000e+02,1.6039e-08
3.9000e+02,1.6044e-08
4.0000e+02,1.6047e-08
4.1000e+02,1.6050e-08
4.2000e+02,1.6051e-08
4.3000e+02,1.6053e-08
4.4000e+02,1.6055e-08
4.5000e+02,1.6056e-08
4.6000e+02,1.6058e-08
4.7000e+02,1.6059e-08
4.8000e+02,1.6059e-08
4.9000e+02,1.6059e-08
5.0000e+02,1.6059e-08
5.1000e+02,1.6059e-08
5.2000e+02,1.6059e-08
5.3000e+02,1.6059e-08
5.4000e+02,1.6059e-08
5.5000e+02,1.6059e-08
5.6000e+02,1.6059e-08
5.7000e+02,1.6060e-08
5.8000e+02,1.6062e-08
5.9000e+02,1.6064e-08
6.0000e+02,1.6066e-08
6.1000e+02,1.6068e-08
6.2000e+02,1.6070e-08
6.3000e+02,1.6069e-08
6.4000e+02,1.6067e-08
6.5000e+02,1.6062e-08
6.6000e+02,1.6056e-08
6.7000e+02,1.6048e-08
6.8000e+02,1.6040e-08
6.9000e+02,1.6033e-08
7.0000e+02,1.6027e-08
7.1000e+02,1.6022e-08
7.2000e+02,1.6021e-08
7.3000e+02,1.6021e-08
7.4000e+02,1.6024e-08
7.5000e+02,1.6029e-08
7.6000e+02,1.6035e-08
7.7000e+02,1.6041e-08
7.8000e+02,1.6048e-08
7.9000e+02,1.6056e-08
8.0000e+02,1.6064e-08
8.1000e+02,1.6073e-08
8.2000e+02,1.6081e-08
8.3000e+02,1.6089e-08
8.4000e+02,1.6096e-08
8.5000e+02,1.6101e-08
8.6000e+02,1.6104e-08
8.7000e+02,1.6106e-08
8.8000e+02,1.6106e-08
8.9000e+02,1.6104e-08
9.0000e+02,1.6100e-08
9.1000e+02,1.6094e-08
9.2000e+02,1.6086e-08
9.3000e+02,1.6075e-08
9.4000e+02,1.6061e-08
9.5000e+02,1.6046e-08
9.6000e+02,1.6030e-08
9.7000e+02,1.6014e-08
9.8000e+02,1.5999e-08
9.9000e+02,1.5984e-08
1.0000e+03,1.5970e-08
1.0100e+03,1.5956e-08
1.0200e+03,1.5943e-08
1.0300e+03,1.5929e-08
1.0400e+03,1.5915e-08
1.0500e+03,1.5902e-08
1.0600e+03,1.5891e-08
1.0700e+03,1.5882e-08
1.0800e+03,1.5877e-08
1.0900e+03,1.5876e-08
1.1000e+03,1.5878e-08
1.1100e+03,1.5883e-08
1.1200e+03,1.5890e-08
1.1300e+03,1.5898e-08
1.1400e+03,1.5905e-08
1.1500e+03,1.5913e-08
1.1600e+03,1.5919e-08
1.1700e+03,1.5925e-08
1.1800e+03,1.5929e-08
1.1900e+03,1.5933e-08
1.2000e+03,1.5936e-08
1.2100e+03,1.5938e-08
1.2200e+03,1.5940e-08
1.2300e+03,1.5943e-08
1.2400e+03,1.5947e-08
1.2500e+03,1.5951e-08
1.2600e+03,1.5956e-08
1.2700e+03,1.5961e-08
1.2800e+03,1.5965e-08
1.2900e+03,1.5970e-08
1.3000e+03,1.5974e-08
1.3100e+03,1.5978e-08
1.3200e+03,1.5982e-08
1.3300e+03,1.5986e-08
1.3400e+03,1.5990e-08
1.3500e+03,1.5992e-08
1.3600e+03,1.5994e-08
1.3700e+03,1.5995e-08
1.3800e+03,1.5995e-08
1.3900e+03,1.5995e-08
1.4000e+03,1.5994e-08
1.4100e+03,1.5992e-08
1.4200e+03,1.5992e-08
1.4300e+03,1.5991e-08
1.4400e+03,1.5991e-08
1.4500e+03,1.5991e-08
1.4600e+03,1.5991e-08
1.4700e+03,1.5991e-08
1.4800e+03,1.5991e-08
1.4900e+03,1.5991e-08
1.5000e+03,1.5991e-08
1.5100e+03,1.5991e-08
1.5200e+03,1.5991e-08
1.5300e+03,1.5991e-08
1.5400e+03,1.5991e-08
1.5500e+03,1.5991e-08
1.5600e+03,1.5991e-08
1.5700e+03,1.5991e-08
1.5800e+03,1.5991e-08
1.5900e+03,1.5991e-08
1.6000e+03,1.5990e-08
1.6100e+03,1.5989e-08
1.6200e+03,1.5988e-08
1.6300e+03,1.5987e-08
1.6400e+03,1.5985e-08
1.6500e+03,1.5983e-08
1.6600e+03,1.5981e-08
1.6700e+03,1.5979e-08
1.6800e+03,1.5977e-08
1.6900e+03,1.5974e-08
1.7000e+03,1.5971e-08
1.7100e+03,1.5968e-08
1.7200e+03,1.5965e-08
1.7300e+03,1.5962e-08
1.7400e+03,1.5959e-08
1.7500e+03,1.5957e-08
1.7600e+03,1.5955e-08
1.7700e+03,1.5954e-08
1.7800e+03,1.5953e-08
1.7900e+03,1.5953e-08
1.8000e+03,1.5953e-08
1.8100e+03,1.5954e-08
1.8200e+03,1.5954e-08
1.8300e+03,1.5956e-08
1.8400e+03,1.5957e-08
1.8500e+03,1.5959e-08
1.8600e+03,1.5961e-08
1.8700e+03,1.5962e-08
1.8800e+03,1.5963e-08
1.8900e+03,1.5963e-08
1.9000e+03,1.5963e-08
1.9100e+03,1.5962e-08
1.9200e+03,1.5960e-08
1.9300e+03,1.5959e-08
1.9400e+03,1.5956e-08
1.9500e+03,1.5955e-08
1.9600e+03,1.5953e-08
1.9700e+03,1.5951e-08
1.9800e+03,1.5949e-08
1.9900e+03,1.5947e-08
2.0000e+03,1.5945e-08
2.0100e+03,1.5943e-08
2.0200e+03,1.5940e-08
2.0300e+03,1.5937e-08
2.0400e+03,1.5933e-08
2.0500e+03,1.5929e-08
2.0600e+03,1.5924e-08
2.0700e+03,1.5920e-08
2.0800e+03,1.5915e-08
2.0900e+03,1.5909e-08
2.1000e+03,1.5903e-08
2.1100e+03,1.5897e-08
2.1200e+03,1.5892e-08
2.1300e+03,1.5886e-08
2.1400e+03,1.5881e-08
2.1500e+03,1.5876e-08
2.1600e+03,1.5872e-08
2.1700e+03,1.5870e-08
2.1800e+03,1.5869e-08
2.1900e+03,1.5870e-08
2.2000e+03,1.5872e-08
2.2100e+03,1.5874e-08
2.2200e+03,1.5877e-08
2.2300e+03,1.5880e-08
2.2400e+03,1.5883e-08
2.2500e+03,1.5886e-08
2.2600e+03,1.5887e-08
2.2700e+03,1.5889e-08
2.2800e+03,1.5891e-08
2.2900e+03,1.5892e-08
2.3000e+03,1.5894e-08
2.3100e+03,1.5894e-08
2.3200e+03,1.5895e-08
2.3300e+03,1.5896e-08
2.3400e+03,1.5897e-08
2.3500e+03,1.5898e-08
2.3600e+03,1.5899e-08
2.3700e+03,1.5900e-08
2.3800e+03,1.5900e-08
2.3900e+03,1.5901e-08
2.4000e+03,1.5902e-08
2.4100e+03,1.5904e-08
2.4200e+03,1.5904e-08
2.4300e+03,1.5904e-08
2.4400e+03,1.5904e-08
2.4500e+03,1.5904e-08
2.4600e+03,1.5904e-08
2.4700e+03,1.5904e-08
2.4800e+03,1.5904e-08
2.4900e+03,1.5904e-08
2.5000e+03,1.5904e-08
2.5100e+03,1.5905e-08
2.5200e+03,1.5905e-08
2.5300e+03,1.5905e-08
2.5400e+03,1.5905e-08
2.5500e+03,1.5905e-08
2.5600e+03,1.5905e-08
2.5700e+03,1.5905e-08
2.5800e+03,1.5905e-08
2.5900e+03,1.5905e-08
2.6000e+03,1.5905e-08
2.6100e+03,1.5905e-08
2.6200e+03,1.5905e-08
2.6300e+03,1.5905e-08
2.6400e+03,1.5904e-08
2.6500e+03,1.5903e-08
2.6600e+03,1.5902e-08
2.6700e+03,1.5901e-08
2.6800e+03,1.5901e-08
2.6900e+03,1.5902e-08
2.7000e+03,1.5902e-08
2.7100e+03,1.5902e-08
2.7200e+03,1.5900e-08
2.7300e+03,1.5898e-08
2.7400e+03,1.5895e-08
2.7500e+03,1.5893e-08
2.7600e+03,1.5892e-08
2.7700e+03,1.5893e-08
2.7800e+03,1.5894e-08
2.7900e+03,1.5894e-08
2.8000e+03,1.5893e-08
2.8100e+03,1.5891e-08
2.8200e+03,1.5888e-08
2.8300e+03,1.5886e-08
2.8400e+03,1.5886e-08
2.8500e+03,1.5888e-08
2.8600e+03,1.5892e-08
2.8700e+03,1.5895e-08
2.8800e+03,1.5897e-08
2.8900e+03,1.5895e-08
2.9000e+03,1.5890e-08
2.9100e+03,1.5882e-08
2.9200e+03,1.5875e-08
2.9300e+03,1.5871e-08
2.9400e+03,1.5873e-08
2.9500e+03,1.5880e-08
2.9600e+03,1.5892e-08
2.9700e+03,1.5906e-08
2.9800e+03,1.5918e-08
2.9900e+03,1.5926e-08
3.0000e+03,1.5926e-08
3.0100e+03,1.5920e-08
3.0200e+03,1.5910e-08
3.0300e+03,1.5901e-08
3.0400e+03,1.5897e-08
3.0500e+03,1.5900e-08
3.0600e+03,1.5911e-08
3.0700e+03,1.5927e-08
3.0800e+03,1.5945e-08
3.0900e+03,1.5960e-08
3.1000e+03,1.5970e-08
3.1100e+03,1.5974e-08
3.1200e+03,1.5972e-08
3.1300e+03,1.5965e-08
3.1400e+03,1.5955e-08
3.1500e+03,1.5942e-08
3.1600e+03,1.5927e-08
3.1700e+03,1.5912e-08
3.1800e+03,1.5897e-08
3.1900e+03,1.5886e-08
3.2000e+03,1.5878e-08
3.2100e+03,1.5877e-08
3.2200e+03,1.5882e-08
3.2300e+03,1.5894e-08
3.2400e+03,1.5909e-08
3.2500e+03,1.5927e-08
3.2600e+03,1.5942e-08
3.2700e+03,1.5954e-08
3.2800e+03,1.5959e-08
3.2900e+03,1.5957e-08
3.3000e+03,1.5949e-08
3.3100e+03,1.5937e-08
3.3200e+03,1.5924e-08
3.3300e+03,1.5912e-08
3.3400e+03,1.5903e-08
3.3500e+03,1.5898e-08
3.3600e+03,1.5898e-08
3.3700e+03,1.5900e-08
3.3800e+03,1.5904e-08
3.3900e+03,1.5908e-08
3.4000e+03,1.5910e-08
3.4100e+03,1.5910e-08
3.4200e+03,1.5907e-08
3.4300e+03,1.5903e-08
3.4400e+03,1.5900e-08
3.4500e+03,1.5900e-08
3.4600e+03,1.5904e-08
3.4700e+03,1.5913e-08
3.4800e+03,1.5924e-08
3.4900e+03,1.5938e-08
3.5000e+03,1.5950e-08
3.5100e+03,1.5961e-08
3.5200e+03,1.5967e-08
3.5300e+03,1.5970e-08
3.5400e+03,1.5971e-08
3.5500e+03,1.5970e-08
3.5600e+03,1.5968e-08
3.5700e+03,1.5967e-08
3.5800e+03,1.5967e-08
3.5900e+03,1.5966e-08
3.6000e+03,1.5966e-08
3.6100e+03,1.5966e-08
3.6200e+03,1.5966e-08
3.6300e+03,1.5967e-08
3.6400e+03,1.5968e-08
3.6500e+03,1.5971e-08
3.6600e+03,1.5974e-08
3.6700e+03,1.5977e-08
3.6800e+03,1.5979e-08
3.6900e+03,1.5979e-08
3.7000e+03,1.5973e-08
3.7100e+03,1.5962e-08
3.7200e+03,1.5945e-08
3.7300e+03,1.5925e-08
3.7400e+03,1.5904e-08
3.7500e+03,1.5887e-08
3.7600e+03,1.5877e-08
3.7700e+03,1.5877e-08
3.7800e+03,1.5887e-08
3.7900e+03,1.5908e-08
3.8000e+03,1.5935e-08
3.8100e+03,1.5966e-08
3.8200e+03,1.5996e-08
3.8300e+03,1.6023e-08
3.8400e+03,1.6044e-08
3.8500e+03,1.6057e-08
3.8600e+03,1.6061e-08
3.8700e+03,1.6056e-08
3.8800e+03,1.6042e-08
3.8900e+03,1.6018e-08
3.9000e+03,1.5984e-08
3.9100e+03,1.5943e-08
3.9200e+03,1.5897e-08
3.9300e+03,1.5847e-08
3.9400e+03,1.5799e-08
3.9500e+03,1.5754e-08
3.9600e+03,1.5716e-08
3.9700e+03,1.5685e-08
3.9800e+03,1.5665e-08
3.9900e+03,1.5656e-08
4.0000e+03,1.5658e-08
4.0100e+03,1.5672e-08
4.0200e+03,1.5698e-08
4.0300e+03,1.5734e-08
4.0400e+03,1.5780e-08
4.0500e+03,1.5832e-08
4.0600e+03,1.5889e-08
4.0700e+03,1.5950e-08
4.0800e+03,1.6011e-08
4.0900e+03,1.6070e-08
4.1000e+03,1.6125e-08
4.1100e+03,1.6174e-08
4.1200e+03,1.6216e-08
4.1300e+03,1.6249e-08
4.1400e+03,1.6274e-08
4.1500e+03,1.6291e-08
4.1600e+03,1.6301e-08
4.1700e+03,1.6305e-08
4.1800e+03,1.6305e-08
4.1900e+03,1.6303e-08
4.2000e+03,1.6300e-08
4.2100e+03,1.6297e-08
4.2200e+03,1.6295e-08
4.2300e+03,1.6293e-08
4.2400e+03,1.6292e-08
4.2500e+03,1.6292e-08
4.2600e+03,1.6292e-08
4.2700e+03,1.6292e-08
4.2800e+03,1.6293e-08
4.2900e+03,1.6294e-08
4.3000e+03,1.6295e-08
4.3100e+03,1.6297e-08
4.3200e+03,1.6298e-08
4.3300e+03,1.6300e-08
4.3400e+03,1.6301e-08
4.3500e+03,1.6303e-08
4.3600e+03,1.6304e-08
4.3700e+03,1.6305e-08
4.3800e+03,1.6305e-08
4.3900e+03,1.6306e-08
4.4000e+03,1.6305e-08
4.4100e+03,1.6305e-08
4.4200e+03,1.6304e-08
4.4300e+03,1.6302e-08
4.4400e+03,1.6301e-08
4.4500e+03,1.6299e-08
4.4600e+03,1.6297e-08
4.4700e+03,1.6295e-08
4.4800e+03,1.6293e-08
4.4900e+03,1.6291e-08
4.5000e+03,1.6290e-08
4.5100e+03,1.6289e-08
4.5200e+03,1.6288e-08
4.5300e+03,1.6287e-08
4.5400e+03,1.6287e-08
4.5500e+03,1.6287e-08
4.5600e+03,1.6287e-08
4.5700e+03,1.6287e-08
4.5800e+03,1.6287e-08
4.5900e+03,1.6287e-08
4.6000e+03,1.6287e-08
4.6100e+03,1.6286e-08
4.6200e+03,1.6286e-08
4.6300e+03,1.6285e-08
4.6400e+03,1.6284e-08
4.6500e+03,1.6283e-08
4.6600e+03,1.6281e-08
4.6700e+03,1.6278e-08
4.6800e+03,1.6274e-08
4.6900e+03,1.6267e-08
4.7000e+03,1.6258e-08
4.7100e+03,1.6245e-08
4.7200e+03,1.6228e-08
4.7300e+03,1.6206e-08
4.7400e+03,1.6179e-08
4.7500e+03,1.6145e-08
4.7600e+03,1.6104e-08
4.7700e+03,1.6056e-08
4.7800e+03,1.6000e-08
4.7900e+03,1.5940e-08
4.8000e+03,1.5874e-08
4.8100e+03,1.5806e-08
4.8200e+03,1.5736e-08
4.8300e+03,1.5666e-08
4.8400e+03,1.5599e-08
4.8500e+03,1.5536e-08
4.8600e+03,1.5479e-08
4.8700e+03,1.5427e-08
4.8800e+03,1.5381e-08
4.8900e+03,1.5339e-08
4.9000e+03,1.5301e-08
4.9100e+03,1.5268e-08
4.9200e+03,1.5240e-08
4.9300e+03,1.5220e-08
4.9400e+03,1.5210e-08
4.9500e+03,1.5211e-08
4.9600e+03,1.5223e-08
4.9700e+03,1.5247e-08
4.9800e+03,1.5285e-08
4.9900e+03,1.5336e-08
5.0000e+03,1.5401e-08
5.0100e+03,1.5478e-08
5.0200e+03,1.5564e-08
5.0300e+03,1.5655e-08
5.0400e+03,1.5749e-08
5.0500e+03,1.5845e-08
5.0600e+03,1.5944e-08
5.0700e+03,1.6045e-08
5.0800e+03,1.6147e-08
5.0900e+03,1.6247e-08
5.1000e+03,1.6342e-08
5.1100e+03,1.6426e-08
5.1200e+03,1.6498e-08
5.1300e+03,1.6553e-08
5.1400e+03,1.6589e-08
5.1500e+03,1.6602e-08
5.1600e+03,1.6591e-08
5.1700e+03,1.6553e-08
5.1800e+03,1.6491e-08
5.1900e+03,1.6412e-08
5.2000e+03,1.6320e-08
5.2100e+03,1.6223e-08
5.2200e+03,1.6122e-08
5.2300e+03,1.6021e-08
5.2400e+03,1.5921e-08
5.2500e+03,1.5824e-08
5.2600e+03,1.5734e-08
5.2700e+03,1.5654e-08
5.2800e+03,1.5585e-08
5.2900e+03,1.5528e-08
5.3000e+03,1.5483e-08
5.3100e+03,1.5448e-08
5.3200e+03,1.5421e-08
5.3300e+03,1.5402e-08
5.3400e+03,1.5391e-08
5.3500e+03,1.5387e-08
5.3600e+03,1.5391e-08
5.3700e+03,1.5400e-08
5.3800e+03,1.5414e-08
5.3900e+03,1.5430e-08
5.4000e+03,1.5447e-08
5.4100e+03,1.5465e-08
5.4200e+03,1.5484e-08
5.4300e+03,1.5504e-08
5.4400e+03,1.5525e-08
5.4500e+03,1.5546e-08
5.4600e+03,1.5566e-08
5.4700e+03,1.5585e-08
5.4800e+03,1.5601e-08
5.4900e+03,1.5615e-08
5.5000e+03,1.5627e-08
5.5100e+03,1.5637e-08
5.5200e+03,1.5644e-08
5.5300e+03,1.5649e-08
5.5400e+03,1.5652e-08
5.5500e+03,1.5652e-08
5.5600e+03,1.5650e-08
5.5700e+03,1.5647e-08
5.5800e+03,1.5645e-08
5.5900e+03,1.5644e-08
5.6000e+03,1.5644e-08
5.6100e+03,1.5644e-08
5.6200e+03,1.5646e-08
5.6300e+03,1.5647e-08
5.6400e+03,1.5649e-08
5.6500e+03,1.5650e-08
5.6600e+03,1.5651e-08
5.6700e+03,1.5653e-08
5.6800e+03,1.5653e-08
5.6900e+03,1.5654e-08
5.7000e+03,1.5656e-08
5.7100e+03,1.5658e-08
5.7200e+03,1.5661e-08
5.7300e+03,1.5666e-08
5.7400e+03,1.5673e-08
5.7500e+03,1.5683e-08
5.7600e+03,1.5693e-08
5.7700e+03,1.5705e-08
5.7800e+03,1.5715e-08
5.7900e+03,1.5724e-08
5.8000e+03,1.5729e-08
5.8100e+03,1.5732e-08
5.8200e+03,1.5735e-08
5.8300e+03,1.5741e-08
5.8400e+03,1.5749e-08
5.8500e+03,1.5762e-08
5.8600e+03,1.5775e-08
5.8700e+03,1.5787e-08
5.8800e+03,1.5795e-08
5.8900e+03,1.5799e-08
5.9000e+03,1.5798e-08
5.9100e+03,1.5793e-08
5.9200e+03,1.5785e-08
5.9300e+03,1.5775e-08
5.9400e+03,1.5763e-08
5.9500e+03,1.5750e-08
5.9600e+03,1.5735e-08
5.9700e+03,1.5716e-08
5.9800e+03,1.5690e-08
5.9900e+03,1.5655e-08
6.0000e+03,1.5610e-08
6.0100e+03,1.5554e-08
6.0200e+03,1.5489e-08
6.0300e+03,1.5415e-08
6.0400e+03,1.5334e-08
6.0500e+03,1.5246e-08
6.0600e+03,1.5152e-08
6.0700e+03,1.5050e-08
6.0800e+03,1.4940e-08
6.0900e+03,1.4821e-08
6.1000e+03,1.4692e-08
6.1100e+03,1.4553e-08
6.1200e+03,1.4404e-08
6.1300e+03,1.4246e-08
6.1400e+03,1.4082e-08
6.1500e+03,1.3914e-08
6.1600e+03,1.3745e-08
6.1700e+03,1.3579e-08
6.1800e+03,1.3418e-08
6.1900e+03,1.3266e-08
6.2000e+03,1.3121e-08
6.2100e+03,1.2985e-08
6.2200e+03,1.2856e-08
6.2300e+03,1.2736e-08
6.2400e+03,1.2626e-08
6.2500e+03,1.2528e-08
6.2600e+03,1.2446e-08
6.2700e+03,1.2381e-08
6.2800e+03,1.2335e-08
6.2900e+03,1.2306e-08
6.3000e+03,1.2292e-08
6.3100e+03,1.2290e-08
6.3200e+03,1.2296e-08
6.3300e+03,1.2306e-08
6.3400e+03,1.2318e-08
6.3500e+03,1.2330e-08
6.3600e+03,1.2342e-08
6.3700e+03,1.2354e-08
6.3800e+03,1.2366e-08
6.3900e+03,1.2381e-08
6.4000e+03,1.2398e-08
6.4100e+03,1.2418e-08
6.4200e+03,1.2441e-08
6.4300e+03,1.2464e-08
6.4400e+03,1.2490e-08
6.4500e+03,1.2517e-08
6.4600e+03,1.2547e-08
6.4700e+03,1.2583e-08
6.4800e+03,1.2625e-08
6.4900e+03,1.2676e-08
6.5000e+03,1.2737e-08
6.5100e+03,1.2808e-08
6.5200e+03,1.2887e-08
6.5300e+03,1.2971e-08
6.5400e+03,1.3056e-08
6.5500e+03,1.3138e-08
6.5600e+03,1.3213e-08
6.5700e+03,1.3277e-08
6.5800e+03,1.3330e-08
6.5900e+03,1.3372e-08
6.6000e+03,1.3403e-08
6.6100e+03,1.3425e-08
6.6200e+03,1.3440e-08
6.6300e+03,1.3450e-08
6.6400e+03,1.3456e-08
6.6500e+03,1.3460e-08
6.6600e+03,1.3463e-08
6.6700e+03,1.3465e-08
6.6800e+03,1.3466e-08
6.6900e+03,1.3468e-08
6.7000e+03,1.3468e-08
6.7100e+03,1.3469e-08
6.7200e+03,1.3470e-08
6.7300e+03,1.3470e-08
6.7400e+03,1.3471e-08
6.7500e+03,1.3474e-08
6.7600e+03,1.3477e-08
6.7700e+03,1.3480e-08
6.7800e+03,1.3483e-08
6.7900e+03,1.3485e-08
6.8000e+03,1.3485e-08
6.8100e+03,1.3482e-08
6.8200e+03,1.3477e-08
6.8300e+03,1.3472e-08
6.8400e+03,1.3468e-08
6.8500e+03,1.3467e-08
6.8600e+03,1.3470e-08
6.8700e+03,1.3479e-08
6.8800e+03,1.3492e-08
6.8900e+03,1.3510e-08
6.9000e+03,1.3532e-08
6.9100e+03,1.3555e-08
6.9200e+03,1.3580e-08
6.9300e+03,1.3605e-08
6.9400e+03,1.3630e-08
6.9500e+03,1.3657e-08
6.9600e+03,1.3686e-08
6.9700e+03,1.3719e-08
6.9800e+03,1.3757e-08
6.9900e+03,1.3800e-08
7.0000e+03,1.3846e-08
7.0100e+03,1.3894e-08
7.0200e+03,1.3941e-08
7.0300e+03,1.3984e-08
7.0400e+03,1.4023e-08
7.0500e+03,1.4056e-08
7.0600e+03,1.4084e-08
7.0700e+03,1.4109e-08
7.0800e+03,1.4136e-08
7.0900e+03,1.4168e-08
7.1000e+03,1.4210e-08
7.1100e+03,1.4265e-08
7.1200e+03,1.4336e-08
7.1300e+03,1.4424e-08
7.1400e+03,1.4533e-08
7.1500e+03,1.4661e-08
7.1600e+03,1.4805e-08
7.1700e+03,1.4958e-08
7.1800e+03,1.5109e-08
7.1900e+03,1.5245e-08
7.2000e+03,1.5358e-08
7.2100e+03,1.5441e-08
7.2200e+03,1.5494e-08
7.2300e+03,1.5521e-08
7.2400e+03,1.5530e-08
7.2500e+03,1.5530e-08
7.2600e+03,1.5529e-08
7.2700e+03,1.5534e-08
7.2800e+03,1.5547e-08
7.2900e+03,1.5566e-08
7.3000e+03,1.5591e-08
7.3100e+03,1.5617e-08
7.3200e+03,1.5641e-08
7.3300e+03,1.5661e-08
7.3400e+03,1.5675e-08
7.3500e+03,1.5682e-08
7.3600e+03,1.5683e-08
7.3700e+03,1.5681e-08
7.3800e+03,1.5681e-08
7.3900e+03,1.5686e-08
7.4000e+03,1.5699e-08
7.4100e+03,1.5720e-08
7.4200e+03,1.5750e-08
7.4300e+03,1.5786e-08
7.4400e+03,1.5828e-08
7.4500e+03,1.5875e-08
7.4600e+03,1.5926e-08
7.4700e+03,1.5980e-08
7.4800e+03,1.6037e-08
7.4900e+03,1.6096e-08
7.5000e+03,1.6155e-08
7.5100e+03,1.6213e-08
7.5200e+03,1.6265e-08
7.5300e+03,1.6310e-08
7.5400e+03,1.6344e-08
7.5500e+03,1.6367e-08
7.5600e+03,1.6378e-08
7.5700e+03,1.6382e-08
7.5800e+03,1.6382e-08
7.5900e+03,1.6380e-08
7.6000e+03,1.6380e-08
7.6100e+03,1.6383e-08
7.6200e+03,1.6388e-08
7.6300e+03,1.6395e-08
7.6400e+03,1.6402e-08
7.6500e+03,1.6409e-08
7.6600e+03,1.6415e-08
7.6700e+03,1.6420e-08
7.6800e+03,1.6423e-08
7.6900e+03,1.6426e-08
7.7000e+03,1.6427e-08
7.7100e+03,1.6428e-08
7.7200e+03,1.6429e-08
7.7300e+03,1.6430e-08
7.7400e+03,1.6431e-08
7.7500e+03,1.6432e-08
7.7600e+03,1.6432e-08
7.7700e+03,1.6433e-08
7.7800e+03,1.6434e-08
7.7900e+03,1.6436e-08
7.8000e+03,1.6441e-08
7.8100e+03,1.6451e-08
7.8200e+03,1.6468e-08
7.8300e+03,1.6494e-08
7.8400e+03,1.6528e-08
7.8500e+03,1.6571e-08
7.8600e+03,1.6621e-08
7.8700e+03,1.6675e-08
7.8800e+03,1.6735e-08
7.8900e+03,1.6798e-08
7.9000e+03,1.6864e-08
7.9100e+03,1.6933e-08
7.9200e+03,1.7002e-08
7.9300e+03,1.7068e-08
7.9400e+03,1.7129e-08
7.9500e+03,1.7182e-08
7.9600e+03,1.7227e-08
7.9700e+03,1.7265e-08
7.9800e+03,1.7295e-08
7.9900e+03,1.7320e-08
8.0000e+03,1.7340e-08
8.0100e+03,1.7354e-08
8.0200e+03,1.7361e-08
8.0300e+03,1.7359e-08
8.0400e+03,1.7347e-08
8.0500e+03,1.7324e-08
8.0600e+03,1.7291e-08
8.0700e+03,1.7248e-08
8.0800e+03,1.7196e-08
8.0900e+03,1.7138e-08
8.1000e+03,1.7074e-08
8.1100e+03,1.7007e-08
8.1200e+03,1.6937e-08
8.1300e+03,1.6867e-08
8.1400e+03,1.6800e-08
8.1500e+03,1.6737e-08
8.1600e+03,1.6682e-08
8.1700e+03,1.6636e-08
8.1800e+03,1.6604e-08
8.1900e+03,1.6586e-08
8.2000e+03,1.6583e-08
8.2100e+03,1.6593e-08
8.2200e+03,1.6612e-08
8.2300e+03,1.6634e-08
8.2400e+03,1.6652e-08
8.2500e+03,1.6660e-08
8.2600e+03,1.6655e-08
8.2700e+03,1.6638e-08
8.2800e+03,1.6612e-08
8.2900e+03,1.6582e-08
8.3000e+03,1.6552e-08
8.3100e+03,1.6525e-08
8.3200e+03,1.6504e-08
8.3300e+03,1.6487e-08
8.3400e+03,1.6474e-08
8.3500e+03,1.6462e-08
8.3600e+03,1.6451e-08
8.3700e+03,1.6439e-08
8.3800e+03,1.6427e-08
8.3900e+03,1.6415e-08
8.4000e+03,1.6404e-08
8.4100e+03,1.6394e-08
8.4200e+03,1.6387e-08
8.4300e+03,1.6382e-08
8.4400e+03,1.6378e-08
8.4500e+03,1.6375e-08
8.4600e+03,1.6373e-08
8.4700e+03,1.6369e-08
8.4800e+03,1.6362e-08
8.4900e+03,1.6352e-08
8.5000e+03,1.6338e-08
8.5100e+03,1.6321e-08
8.5200e+03,1.6300e-08
8.5300e+03,1.6277e-08
8.5400e+03,1.6254e-08
8.5500e+03,1.6232e-08
8.5600e+03,1.6212e-08
8.5700e+03,1.6196e-08
8.5800e+03,1.6187e-08
8.5900e+03,1.6183e-08
8.6000e+03,1.6188e-08
8.6100e+03,1.6199e-08
8.6200e+03,1.6215e-08
8.6300e+03,1.6234e-08
8.6400e+03,1.6253e-08
8.6500e+03,1.6270e-08
8.6600e+03,1.6283e-08
8.6700e+03,1.6292e-08
8.6800e+03,1.6298e-08
8.6900e+03,1.6300e-08
8.7000e+03,1.6301e-08
8.7100e+03,1.6301e-08
8.7200e+03,1.6300e-08
8.7300e+03,1.6297e-08
8.7400e+03,1.6295e-08
8.7500e+03,1.6291e-08
8.7600e+03,1.6287e-08
8.7700e+03,1.6280e-08
8.7800e+03,1.6271e-08
8.7900e+03,1.6258e-08
8.8000e+03,1.6240e-08
8.8100e+03,1.6217e-08
8.8200e+03,1.6189e-08
8.8300e+03,1.6158e-08
8.8400e+03,1.6126e-08
8.8500e+03,1.6094e-08
8.8600e+03,1.6063e-08
8.8700e+03,1.6036e-08
8.8800e+03,1.6013e-08
8.8900e+03,1.5996e-08
8.9000e+03,1.5988e-08
8.9100e+03,1.5986e-08
8.9200e+03,1.5990e-08
8.9300e+03,1.5997e-08
8.9400e+03,1.6003e-08
8.9500e+03,1.6006e-08
8.9600e+03,1.6005e-08
8.9700e+03,1.6000e-08
8.9800e+03,1.5992e-08
8.9900e+03,1.5982e-08
9.0000e+03,1.5971e-08
9.0100e+03,1.5961e-08
9.0200e+03,1.5951e-08
9.0300e+03,1.5940e-08
9.0400e+03,1.5929e-08
9.0500e+03,1.5917e-08
9.0600e+03,1.5906e-08
9.0700e+03,1.5895e-08
