# Time , Side-Flux
0.0000e+00,0.0000e+00
1.0000e+01,1.4252e-07
2.0000e+01,2.3216e-07
3.0000e+01,2.7717e-07
4.0000e+01,2.9908e-07
5.0000e+01,3.1020e-07
6.0000e+01,3.1622e-07
7.0000e+01,3.1969e-07
8.0000e+01,3.2179e-07
9.0000e+01,3.2314e-07
1.0000e+02,3.2403e-07
1.1000e+02,3.2465e-07
1.2000e+02,3.2508e-07
1.3000e+02,3.2540e-07
1.4000e+02,3.2564e-07
1.5000e+02,3.2582e-07
1.6000e+02,3.2596e-07
1.7000e+02,3.2606e-07
1.8000e+02,3.2614e-07
1.9000e+02,3.2621e-07
2.0000e+02,3.2628e-07
2.1000e+02,3.2634e-07
2.2000e+02,3.2638e-07
2.3000e+02,3.2642e-07
2.4000e+02,3.2644e-07
2.5000e+02,3.2645e-07
2.6000e+02,3.2646e-07
2.7000e+02,3.2646e-07
2.8000e+02,3.2647e-07
2.9000e+02,3.2650e-07
3.0000e+02,3.2650e-07
3.1000e+02,3.2647e-07
3.2000e+02,3.2650e-07
3.3000e+02,3.2658e-07
3.4000e+02,3.2661e-07
3.5000e+02,3.2653e-07
3.6000e+02,3.2644e-07
3.7000e+02,3.2645e-07
3.8000e+02,3.2653e-07
3.9000e+02,3.2661e-07
4.0000e+02,3.2663e-07
4.1000e+02,3.2658e-07
4.2000e+02,3.2650e-07
4.3000e+02,3.2644e-07
4.4000e+02,3.2643e-07
4.5000e+02,3.2646e-07
4.6000e+02,3.2649e-07
4.7000e+02,3.2650e-07
4.8000e+02,3.2650e-07
4.9000e+02,3.2650e-07
5.0000e+02,3.2650e-07
5.1000e+02,3.2650e-07
5.2000e+02,3.2650e-07
5.3000e+02,3.2650e-07
5.4000e+02,3.2650e-07
5.5000e+02,3.2649e-07
5.6000e+02,3.2649e-07
5.7000e+02,3.2649e-07
5.8000e+02,3.2649e-07
5.9000e+02,3.2649e-07
6.0000e+02,3.2653e-07
6.1000e+02,3.2661e-07
6.2000e+02,3.2666e-07
6.3000e+02,3.2663e-07
6.4000e+02,3.2655e-07
6.5000e+02,3.2648e-07
6.6000e+02,3.2641e-07
6.7000e+02,3.2636e-07
6.8000e+02,3.2634e-07
6.9000e+02,3.2626e-07
7.0000e+02,3.2614e-07
7.1000e+02,3.2606e-07
7.2000e+02,3.2600e-07
7.3000e+02,3.2600e-07
7.4000e+02,3.2607e-07
7.5000e+02,3.2611e-07
7.6000e+02,3.2611e-07
7.7000e+02,3.2610e-07
7.8000e+02,3.2609e-07
7.9000e+02,3.2607e-07
8.0000e+02,3.2605e-07
8.1000e+02,3.2609e-07
8.2000e+02,3.2613e-07
8.3000e+02,3.2619e-07
8.4000e+02,3.2626e-07
8.5000e+02,3.2629e-07
8.6000e+02,3.2625e-07
8.7000e+02,3.2624e-07
8.8000e+02,3.2623e-07
8.9000e+02,3.2622e-07
9.0000e+02,3.2617e-07
9.1000e+02,3.2609e-07
9.2000e+02,3.2610e-07
9.3000e+02,3.2612e-07
9.4000e+02,3.2611e-07
9.5000e+02,3.2605e-07
9.6000e+02,3.2589e-07
9.7000e+02,3.2577e-07
9.8000e+02,3.2576e-07
9.9000e+02,3.2578e-07
1.0000e+03,3.2579e-07
1.0100e+03,3.2575e-07
1.0200e+03,3.2566e-07
1.0300e+03,3.2567e-07
1.0400e+03,3.2566e-07
1.0500e+03,3.2549e-07
1.0600e+03,3.2538e-07
1.0700e+03,3.2523e-07
1.0800e+03,3.2505e-07
1.0900e+03,3.2497e-07
1.1000e+03,3.2516e-07
1.1100e+03,3.2532e-07
1.1200e+03,3.2533e-07
1.1300e+03,3.2533e-07
1.1400e+03,3.2534e-07
1.1500e+03,3.2536e-07
1.1600e+03,3.2535e-07
1.1700e+03,3.2533e-07
1.1800e+03,3.2536e-07
1.1900e+03,3.2538e-07
1.2000e+03,3.2536e-07
1.2100e+03,3.2533e-07
1.2200e+03,3.2531e-07
1.2300e+03,3.2529e-07
1.2400e+03,3.2528e-07
1.2500e+03,3.2532e-07
1.2600e+03,3.2538e-07
1.2700e+03,3.2540e-07
1.2800e+03,3.2538e-07
1.2900e+03,3.2538e-07
1.3000e+03,3.2537e-07
1.3100e+03,3.2532e-07
1.3200e+03,3.2531e-07
1.3300e+03,3.2537e-07
1.3400e+03,3.2535e-07
1.3500e+03,3.2534e-07
1.3600e+03,3.2536e-07
1.3700e+03,3.2533e-07
1.3800e+03,3.2532e-07
1.3900e+03,3.2533e-07
1.4000e+03,3.2533e-07
1.4100e+03,3.2532e-07
1.4200e+03,3.2531e-07
1.4300e+03,3.2530e-07
1.4400e+03,3.2530e-07
1.4500e+03,3.2530e-07
1.4600e+03,3.2530e-07
1.4700e+03,3.2530e-07
1.4800e+03,3.2530e-07
1.4900e+03,3.2530e-07
1.5000e+03,3.2530e-07
1.5100e+03,3.2530e-07
1.5200e+03,3.2530e-07
1.5300e+03,3.2530e-07
1.5400e+03,3.2530e-07
1.5500e+03,3.2530e-07
1.5600e+03,3.2530e-07
1.5700e+03,3.2530e-07
1.5800e+03,3.2529e-07
1.5900e+03,3.2527e-07
1.6000e+03,3.2527e-07
1.6100e+03,3.2529e-07
1.6200e+03,3.2526e-07
1.6300e+03,3.2519e-07
1.6400e+03,3.2520e-07
1.6500e+03,3.2518e-07
1.6600e+03,3.2515e-07
1.6700e+03,3.2519e-07
1.6800e+03,3.2521e-07
1.6900e+03,3.2518e-07
1.7000e+03,3.2513e-07
1.7100e+03,3.2509e-07
1.7200e+03,3.2513e-07
1.7300e+03,3.2509e-07
1.7400e+03,3.2491e-07
1.7500e+03,3.2495e-07
1.7600e+03,3.2513e-07
1.7700e+03,3.2514e-07
1.7800e+03,3.2506e-07
1.7900e+03,3.2505e-07
1.8000e+03,3.2504e-07
1.8100e+03,3.2502e-07
1.8200e+03,3.2500e-07
1.8300e+03,3.2504e-07
1.8400e+03,3.2505e-07
1.8500e+03,3.2491e-07
1.8600e+03,3.2491e-07
1.8700e+03,3.2507e-07
1.8800e+03,3.2509e-07
1.8900e+03,3.2494e-07
1.9000e+03,3.2481e-07
1.9100e+03,3.2498e-07
1.9200e+03,3.2523e-07
1.9300e+03,3.2515e-07
1.9400e+03,3.2484e-07
1.9500e+03,3.2466e-07
1.9600e+03,3.2477e-07
1.9700e+03,3.2503e-07
1.9800e+03,3.2524e-07
1.9900e+03,3.2527e-07
2.0000e+03,3.2501e-07
2.0100e+03,3.2453e-07
2.0200e+03,3.2410e-07
2.0300e+03,3.2397e-07
2.0400e+03,3.2394e-07
2.0500e+03,3.2367e-07
2.0600e+03,3.2343e-07
2.0700e+03,3.2363e-07
2.0800e+03,3.2396e-07
2.0900e+03,3.2388e-07
2.1000e+03,3.2344e-07
2.1100e+03,3.2338e-07
2.1200e+03,3.2381e-07
2.1300e+03,3.2411e-07
2.1400e+03,3.2377e-07
2.1500e+03,3.2312e-07
2.1600e+03,3.2299e-07
2.1700e+03,3.2366e-07
2.1800e+03,3.2452e-07
2.1900e+03,3.2484e-07
2.2000e+03,3.2445e-07
2.2100e+03,3.2364e-07
2.2200e+03,3.2315e-07
2.2300e+03,3.2324e-07
2.2400e+03,3.2363e-07
2.2500e+03,3.2391e-07
2.2600e+03,3.2383e-07
2.2700e+03,3.2361e-07
2.2800e+03,3.2352e-07
2.2900e+03,3.2356e-07
2.3000e+03,3.2360e-07
2.3100e+03,3.2358e-07
2.3200e+03,3.2354e-07
2.3300e+03,3.2350e-07
2.3400e+03,3.2353e-07
2.3500e+03,3.2368e-07
2.3600e+03,3.2389e-07
2.3700e+03,3.2408e-07
2.3800e+03,3.2434e-07
2.3900e+03,3.2482e-07
2.4000e+03,3.2558e-07
2.4100e+03,3.2647e-07
2.4200e+03,3.2716e-07
2.4300e+03,3.2744e-07
2.4400e+03,3.2733e-07
2.4500e+03,3.2700e-07
2.4600e+03,3.2657e-07
2.4700e+03,3.2610e-07
2.4800e+03,3.2573e-07
2.4900e+03,3.2563e-07
2.5000e+03,3.2584e-07
2.5100e+03,3.2617e-07
2.5200e+03,3.2638e-07
2.5300e+03,3.2643e-07
2.5400e+03,3.2642e-07
2.5500e+03,3.2640e-07
2.5600e+03,3.2639e-07
2.5700e+03,3.2638e-07
2.5800e+03,3.2638e-07
2.5900e+03,3.2639e-07
2.6000e+03,3.2640e-07
2.6100e+03,3.2640e-07
2.6200e+03,3.2640e-07
2.6300e+03,3.2639e-07
2.6400e+03,3.2630e-07
2.6500e+03,3.2615e-07
2.6600e+03,3.2609e-07
2.6700e+03,3.2641e-07
2.6800e+03,3.2720e-07
2.6900e+03,3.2826e-07
2.7000e+03,3.2924e-07
2.7100e+03,3.2988e-07
2.7200e+03,3.2985e-07
2.7300e+03,3.2911e-07
2.7400e+03,3.2780e-07
2.7500e+03,3.2630e-07
2.7600e+03,3.2495e-07
2.7700e+03,3.2394e-07
2.7800e+03,3.2319e-07
2.7900e+03,3.2259e-07
2.8000e+03,3.2214e-07
2.8100e+03,3.2186e-07
2.8200e+03,3.2173e-07
2.8300e+03,3.2172e-07
2.8400e+03,3.2178e-07
2.8500e+03,3.2191e-07
2.8600e+03,3.2212e-07
2.8700e+03,3.2230e-07
2.8800e+03,3.2212e-07
2.8900e+03,3.2141e-07
2.9000e+03,3.2033e-07
2.9100e+03,3.1918e-07
2.9200e+03,3.1810e-07
2.9300e+03,3.1714e-07
2.9400e+03,3.1640e-07
2.9500e+03,3.1598e-07
2.9600e+03,3.1602e-07
2.9700e+03,3.1644e-07
2.9800e+03,3.1713e-07
2.9900e+03,3.1778e-07
3.0000e+03,3.1812e-07
3.0100e+03,3.1800e-07
3.0200e+03,3.1761e-07
3.0300e+03,3.1730e-07
3.0400e+03,3.1739e-07
3.0500e+03,3.1827e-07
3.0600e+03,3.2020e-07
3.0700e+03,3.2331e-07
3.0800e+03,3.2713e-07
3.0900e+03,3.3105e-07
3.1000e+03,3.3457e-07
3.1100e+03,3.3682e-07
3.1200e+03,3.3777e-07
3.1300e+03,3.3736e-07
3.1400e+03,3.3576e-07
3.1500e+03,3.3368e-07
3.1600e+03,3.3139e-07
3.1700e+03,3.2920e-07
3.1800e+03,3.2749e-07
3.1900e+03,3.2629e-07
3.2000e+03,3.2555e-07
3.2100e+03,3.2530e-07
3.2200e+03,3.2544e-07
3.2300e+03,3.2591e-07
3.2400e+03,3.2646e-07
3.2500e+03,3.2685e-07
3.2600e+03,3.2714e-07
3.2700e+03,3.2726e-07
3.2800e+03,3.2715e-07
3.2900e+03,3.2701e-07
3.3000e+03,3.2659e-07
3.3100e+03,3.2585e-07
3.3200e+03,3.2526e-07
3.3300e+03,3.2488e-07
3.3400e+03,3.2466e-07
3.3500e+03,3.2459e-07
3.3600e+03,3.2460e-07
3.3700e+03,3.2462e-07
3.3800e+03,3.2469e-07
3.3900e+03,3.2488e-07
3.4000e+03,3.2508e-07
3.4100e+03,3.2530e-07
3.4200e+03,3.2570e-07
3.4300e+03,3.2627e-07
3.4400e+03,3.2671e-07
3.4500e+03,3.2704e-07
3.4600e+03,3.2748e-07
3.4700e+03,3.2801e-07
3.4800e+03,3.2866e-07
3.4900e+03,3.2967e-07
3.5000e+03,3.3107e-07
3.5100e+03,3.3242e-07
3.5200e+03,3.3346e-07
3.5300e+03,3.3414e-07
3.5400e+03,3.3444e-07
3.5500e+03,3.3451e-07
3.5600e+03,3.3454e-07
3.5700e+03,3.3456e-07
3.5800e+03,3.3457e-07
3.5900e+03,3.3457e-07
3.6000e+03,3.3457e-07
3.6100e+03,3.3458e-07
3.6200e+03,3.3459e-07
3.6300e+03,3.3460e-07
3.6400e+03,3.3463e-07
3.6500e+03,3.3477e-07
3.6600e+03,3.3519e-07
3.6700e+03,3.3583e-07
3.6800e+03,3.3643e-07
3.6900e+03,3.3690e-07
3.7000e+03,3.3727e-07
3.7100e+03,3.3740e-07
3.7200e+03,3.3731e-07
3.7300e+03,3.3706e-07
3.7400e+03,3.3657e-07
3.7500e+03,3.3584e-07
3.7600e+03,3.3523e-07
3.7700e+03,3.3484e-07
3.7800e+03,3.3443e-07
3.7900e+03,3.3405e-07
3.8000e+03,3.3392e-07
3.8100e+03,3.3410e-07
3.8200e+03,3.3445e-07
3.8300e+03,3.3491e-07
3.8400e+03,3.3535e-07
3.8500e+03,3.3556e-07
3.8600e+03,3.3561e-07
3.8700e+03,3.3558e-07
3.8800e+03,3.3537e-07
3.8900e+03,3.3493e-07
3.9000e+03,3.3417e-07
3.9100e+03,3.3316e-07
3.9200e+03,3.3231e-07
3.9300e+03,3.3164e-07
3.9400e+03,3.3093e-07
3.9500e+03,3.3005e-07
3.9600e+03,3.2914e-07
3.9700e+03,3.2859e-07
3.9800e+03,3.2826e-07
3.9900e+03,3.2781e-07
4.0000e+03,3.2743e-07
4.0100e+03,3.2766e-07
4.0200e+03,3.2860e-07
4.0300e+03,3.2957e-07
4.0400e+03,3.3023e-07
4.0500e+03,3.3106e-07
4.0600e+03,3.3285e-07
4.0700e+03,3.3591e-07
4.0800e+03,3.3938e-07
4.0900e+03,3.4224e-07
4.1000e+03,3.4473e-07
4.1100e+03,3.4760e-07
4.1200e+03,3.5130e-07
4.1300e+03,3.5485e-07
4.1400e+03,3.5680e-07
4.1500e+03,3.5664e-07
4.1600e+03,3.5502e-07
4.1700e+03,3.5284e-07
4.1800e+03,3.5068e-07
4.1900e+03,3.4894e-07
4.2000e+03,3.4785e-07
4.2100e+03,3.4749e-07
4.2200e+03,3.4767e-07
4.2300e+03,3.4802e-07
4.2400e+03,3.4823e-07
4.2500e+03,3.4824e-07
4.2600e+03,3.4818e-07
4.2700e+03,3.4814e-07
4.2800e+03,3.4812e-07
4.2900e+03,3.4809e-07
4.3000e+03,3.4808e-07
4.3100e+03,3.4812e-07
4.3200e+03,3.4822e-07
4.3300e+03,3.4832e-07
4.3400e+03,3.4841e-07
4.3500e+03,3.4847e-07
4.3600e+03,3.4847e-07
4.3700e+03,3.4847e-07
4.3800e+03,3.4850e-07
4.3900e+03,3.4848e-07
4.4000e+03,3.4835e-07
4.4100e+03,3.4815e-07
4.4200e+03,3.4793e-07
4.4300e+03,3.4776e-07
4.4400e+03,3.4770e-07
4.4500e+03,3.4774e-07
4.4600e+03,3.4775e-07
4.4700e+03,3.4760e-07
4.4800e+03,3.4732e-07
4.4900e+03,3.4706e-07
4.5000e+03,3.4693e-07
4.5100e+03,3.4699e-07
4.5200e+03,3.4703e-07
4.5300e+03,3.4693e-07
4.5400e+03,3.4683e-07
4.5500e+03,3.4690e-07
4.5600e+03,3.4712e-07
4.5700e+03,3.4734e-07
4.5800e+03,3.4744e-07
4.5900e+03,3.4745e-07
4.6000e+03,3.4745e-07
4.6100e+03,3.4745e-07
4.6200e+03,3.4745e-07
4.6300e+03,3.4744e-07
4.6400e+03,3.4743e-07
4.6500e+03,3.4743e-07
4.6600e+03,3.4742e-07
4.6700e+03,3.4734e-07
4.6800e+03,3.4717e-07
4.6900e+03,3.4682e-07
4.7000e+03,3.4624e-07
4.7100e+03,3.4545e-07
4.7200e+03,3.4472e-07
4.7300e+03,3.4422e-07
4.7400e+03,3.4368e-07
4.7500e+03,3.4297e-07
4.7600e+03,3.4188e-07
4.7700e+03,3.4026e-07
4.7800e+03,3.3843e-07
4.7900e+03,3.3689e-07
4.8000e+03,3.3573e-07
4.8100e+03,3.3494e-07
4.8200e+03,3.3420e-07
4.8300e+03,3.3317e-07
4.8400e+03,3.3212e-07
4.8500e+03,3.3130e-07
4.8600e+03,3.3086e-07
4.8700e+03,3.3070e-07
4.8800e+03,3.3064e-07
4.8900e+03,3.3059e-07
4.9000e+03,3.3049e-07
4.9100e+03,3.3020e-07
4.9200e+03,3.2971e-07
4.9300e+03,3.2917e-07
4.9400e+03,3.2870e-07
4.9500e+03,3.2835e-07
4.9600e+03,3.2820e-07
4.9700e+03,3.2819e-07
4.9800e+03,3.2844e-07
4.9900e+03,3.2910e-07
5.0000e+03,3.3028e-07
5.0100e+03,3.3174e-07
5.0200e+03,3.3295e-07
5.0300e+03,3.3368e-07
5.0400e+03,3.3400e-07
5.0500e+03,3.3393e-07
5.0600e+03,3.3372e-07
5.0700e+03,3.3377e-07
5.0800e+03,3.3399e-07
5.0900e+03,3.3437e-07
5.1000e+03,3.3485e-07
5.1100e+03,3.3553e-07
5.1200e+03,3.3643e-07
5.1300e+03,3.3750e-07
5.1400e+03,3.3868e-07
5.1500e+03,3.4039e-07
5.1600e+03,3.4300e-07
5.1700e+03,3.4574e-07
5.1800e+03,3.4756e-07
5.1900e+03,3.4828e-07
5.2000e+03,3.4842e-07
5.2100e+03,3.4853e-07
5.2200e+03,3.4858e-07
5.2300e+03,3.4807e-07
5.2400e+03,3.4680e-07
5.2500e+03,3.4497e-07
5.2600e+03,3.4277e-07
5.2700e+03,3.4072e-07
5.2800e+03,3.3929e-07
5.2900e+03,3.3848e-07
5.3000e+03,3.3810e-07
5.3100e+03,3.3796e-07
5.3200e+03,3.3784e-07
5.3300e+03,3.3754e-07
5.3400e+03,3.3705e-07
5.3500e+03,3.3648e-07
5.3600e+03,3.3598e-07
5.3700e+03,3.3564e-07
5.3800e+03,3.3547e-07
5.3900e+03,3.3540e-07
5.4000e+03,3.3539e-07
5.4100e+03,3.3537e-07
5.4200e+03,3.3538e-07
5.4300e+03,3.3550e-07
5.4400e+03,3.3569e-07
5.4500e+03,3.3566e-07
5.4600e+03,3.3511e-07
5.4700e+03,3.3451e-07
5.4800e+03,3.3449e-07
5.4900e+03,3.3451e-07
5.5000e+03,3.3418e-07
5.5100e+03,3.3404e-07
5.5200e+03,3.3427e-07
5.5300e+03,3.3465e-07
5.5400e+03,3.3508e-07
5.5500e+03,3.3537e-07
5.5600e+03,3.3532e-07
5.5700e+03,3.3499e-07
5.5800e+03,3.3463e-07
5.5900e+03,3.3438e-07
5.6000e+03,3.3425e-07
5.6100e+03,3.3421e-07
5.6200e+03,3.3421e-07
5.6300e+03,3.3423e-07
5.6400e+03,3.3423e-07
5.6500e+03,3.3424e-07
5.6600e+03,3.3426e-07
5.6700e+03,3.3428e-07
5.6800e+03,3.3429e-07
5.6900e+03,3.3430e-07
5.7000e+03,3.3432e-07
5.7100e+03,3.3432e-07
5.7200e+03,3.3432e-07
5.7300e+03,3.3432e-07
5.7400e+03,3.3448e-07
5.7500e+03,3.3485e-07
5.7600e+03,3.3516e-07
5.7700e+03,3.3518e-07
5.7800e+03,3.3502e-07
5.7900e+03,3.3471e-07
5.8000e+03,3.3400e-07
5.8100e+03,3.3274e-07
5.8200e+03,3.3143e-07
5.8300e+03,3.3100e-07
5.8400e+03,3.3195e-07
5.8500e+03,3.3350e-07
5.8600e+03,3.3490e-07
5.8700e+03,3.3610e-07
5.8800e+03,3.3697e-07
5.8900e+03,3.3735e-07
5.9000e+03,3.3740e-07
5.9100e+03,3.3743e-07
5.9200e+03,3.3748e-07
5.9300e+03,3.3750e-07
5.9400e+03,3.3741e-07
5.9500e+03,3.3733e-07
5.9600e+03,3.3750e-07
5.9700e+03,3.3789e-07
5.9800e+03,3.3823e-07
5.9900e+03,3.3833e-07
6.0000e+03,3.3819e-07
6.0100e+03,3.3778e-07
6.0200e+03,3.3707e-07
6.0300e+03,3.3636e-07
6.0400e+03,3.3604e-07
6.0500e+03,3.3608e-07
6.0600e+03,3.3605e-07
6.0700e+03,3.3588e-07
6.0800e+03,3.3572e-07
6.0900e+03,3.3591e-07
6.1000e+03,3.3650e-07
6.1100e+03,3.3673e-07
6.1200e+03,3.3626e-07
6.1300e+03,3.3538e-07
6.1400e+03,3.3449e-07
6.1500e+03,3.3332e-07
6.1600e+03,3.3180e-07
6.1700e+03,3.3126e-07
6.1800e+03,3.3219e-07
6.1900e+03,3.3374e-07
6.2000e+03,3.3494e-07
6.2100e+03,3.3514e-07
6.2200e+03,3.3486e-07
6.2300e+03,3.3433e-07
6.2400e+03,3.3330e-07
6.2500e+03,3.3150e-07
6.2600e+03,3.2934e-07
6.2700e+03,3.2757e-07
6.2800e+03,3.2640e-07
6.2900e+03,3.2570e-07
6.3000e+03,3.2534e-07
6.3100e+03,3.2514e-07
6.3200e+03,3.2491e-07
6.3300e+03,3.2464e-07
6.3400e+03,3.2440e-07
6.3500e+03,3.2417e-07
6.3600e+03,3.2389e-07
6.3700e+03,3.2349e-07
6.3800e+03,3.2289e-07
6.3900e+03,3.2226e-07
6.4000e+03,3.2192e-07
6.4100e+03,3.2186e-07
6.4200e+03,3.2189e-07
6.4300e+03,3.2190e-07
6.4400e+03,3.2189e-07
6.4500e+03,3.2189e-07
6.4600e+03,3.2191e-07
6.4700e+03,3.2195e-07
6.4800e+03,3.2193e-07
6.4900e+03,3.2192e-07
6.5000e+03,3.2230e-07
6.5100e+03,3.2323e-07
6.5200e+03,3.2441e-07
6.5300e+03,3.2538e-07
6.5400e+03,3.2603e-07
6.5500e+03,3.2691e-07
6.5600e+03,3.2799e-07
6.5700e+03,3.2910e-07
6.5800e+03,3.2993e-07
6.5900e+03,3.3007e-07
6.6000e+03,3.2970e-07
6.6100e+03,3.2939e-07
6.6200e+03,3.2927e-07
6.6300e+03,3.2925e-07
6.6400e+03,3.2926e-07
6.6500e+03,3.2927e-07
6.6600e+03,3.2926e-07
6.6700e+03,3.2923e-07
6.6800e+03,3.2920e-07
6.6900e+03,3.2917e-07
6.7000e+03,3.2915e-07
6.7100e+03,3.2913e-07
6.7200e+03,3.2913e-07
6.7300e+03,3.2912e-07
6.7400e+03,3.2905e-07
6.7500e+03,3.2890e-07
6.7600e+03,3.2868e-07
6.7700e+03,3.2833e-07
6.7800e+03,3.2773e-07
6.7900e+03,3.2688e-07
6.8000e+03,3.2602e-07
6.8100e+03,3.2538e-07
6.8200e+03,3.2493e-07
6.8300e+03,3.2438e-07
6.8400e+03,3.2343e-07
6.8500e+03,3.2220e-07
6.8600e+03,3.2096e-07
6.8700e+03,3.1999e-07
6.8800e+03,3.1946e-07
6.8900e+03,3.1932e-07
6.9000e+03,3.1933e-07
6.9100e+03,3.1939e-07
6.9200e+03,3.1939e-07
6.9300e+03,3.1934e-07
6.9400e+03,3.1927e-07
6.9500e+03,3.1917e-07
6.9600e+03,3.1916e-07
6.9700e+03,3.1952e-07
6.9800e+03,3.2033e-07
6.9900e+03,3.2140e-07
7.0000e+03,3.2241e-07
7.0100e+03,3.2332e-07
7.0200e+03,3.2407e-07
7.0300e+03,3.2475e-07
7.0400e+03,3.2540e-07
7.0500e+03,3.2596e-07
7.0600e+03,3.2632e-07
7.0700e+03,3.2647e-07
7.0800e+03,3.2666e-07
7.0900e+03,3.2703e-07
7.1000e+03,3.2749e-07
7.1100e+03,3.2793e-07
7.1200e+03,3.2820e-07
7.1300e+03,3.2798e-07
7.1400e+03,3.2781e-07
7.1500e+03,3.2906e-07
7.1600e+03,3.3237e-07
7.1700e+03,3.3733e-07
7.1800e+03,3.4239e-07
7.1900e+03,3.4652e-07
7.2000e+03,3.4975e-07
7.2100e+03,3.5184e-07
7.2200e+03,3.5385e-07
7.2300e+03,3.5622e-07
7.2400e+03,3.5819e-07
7.2500e+03,3.5939e-07
7.2600e+03,3.6007e-07
7.2700e+03,3.6047e-07
7.2800e+03,3.6071e-07
7.2900e+03,3.6083e-07
7.3000e+03,3.6086e-07
7.3100e+03,3.6087e-07
7.3200e+03,3.6095e-07
7.3300e+03,3.6108e-07
7.3400e+03,3.6116e-07
7.3500e+03,3.6097e-07
7.3600e+03,3.6044e-07
7.3700e+03,3.5981e-07
7.3800e+03,3.5931e-07
7.3900e+03,3.5913e-07
7.4000e+03,3.5917e-07
7.4100e+03,3.5926e-07
7.4200e+03,3.5939e-07
7.4300e+03,3.5946e-07
7.4400e+03,3.5945e-07
7.4500e+03,3.5943e-07
7.4600e+03,3.5939e-07
7.4700e+03,3.5935e-07
7.4800e+03,3.5928e-07
7.4900e+03,3.5938e-07
7.5000e+03,3.5994e-07
7.5100e+03,3.6100e-07
7.5200e+03,3.6220e-07
7.5300e+03,3.6314e-07
7.5400e+03,3.6395e-07
7.5500e+03,3.6478e-07
7.5600e+03,3.6537e-07
7.5700e+03,3.6559e-07
7.5800e+03,3.6563e-07
7.5900e+03,3.6572e-07
7.6000e+03,3.6604e-07
7.6100e+03,3.6648e-07
7.6200e+03,3.6680e-07
7.6300e+03,3.6691e-07
7.6400e+03,3.6698e-07
7.6500e+03,3.6714e-07
7.6600e+03,3.6729e-07
7.6700e+03,3.6739e-07
7.6800e+03,3.6743e-07
7.6900e+03,3.6745e-07
7.7000e+03,3.6745e-07
7.7100e+03,3.6743e-07
7.7200e+03,3.6742e-07
7.7300e+03,3.6741e-07
7.7400e+03,3.6741e-07
7.7500e+03,3.6742e-07
7.7600e+03,3.6742e-07
7.7700e+03,3.6735e-07
7.7800e+03,3.6713e-07
7.7900e+03,3.6669e-07
7.8000e+03,3.6613e-07
7.8100e+03,3.6574e-07
7.8200e+03,3.6584e-07
7.8300e+03,3.6644e-07
7.8400e+03,3.6719e-07
7.8500e+03,3.6793e-07
7.8600e+03,3.6846e-07
7.8700e+03,3.6868e-07
7.8800e+03,3.6873e-07
7.8900e+03,3.6897e-07
7.9000e+03,3.6968e-07
7.9100e+03,3.7072e-07
7.9200e+03,3.7192e-07
7.9300e+03,3.7324e-07
7.9400e+03,3.7432e-07
7.9500e+03,3.7496e-07
7.9600e+03,3.7537e-07
7.9700e+03,3.7557e-07
7.9800e+03,3.7560e-07
7.9900e+03,3.7555e-07
8.0000e+03,3.7557e-07
8.0100e+03,3.7565e-07
8.0200e+03,3.7561e-07
8.0300e+03,3.7556e-07
8.0400e+03,3.7554e-07
8.0500e+03,3.7529e-07
8.0600e+03,3.7470e-07
8.0700e+03,3.7371e-07
8.0800e+03,3.7238e-07
8.0900e+03,3.7096e-07
8.1000e+03,3.6958e-07
8.1100e+03,3.6815e-07
8.1200e+03,3.6679e-07
8.1300e+03,3.6576e-07
8.1400e+03,3.6502e-07
8.1500e+03,3.6419e-07
8.1600e+03,3.6290e-07
8.1700e+03,3.6094e-07
8.1800e+03,3.5838e-07
8.1900e+03,3.5560e-07
8.2000e+03,3.5268e-07
8.2100e+03,3.4911e-07
8.2200e+03,3.4471e-07
8.2300e+03,3.4022e-07
8.2400e+03,3.3672e-07
8.2500e+03,3.3487e-07
8.2600e+03,3.3430e-07
8.2700e+03,3.3408e-07
8.2800e+03,3.3370e-07
8.2900e+03,3.3343e-07
8.3000e+03,3.3349e-07
8.3100e+03,3.3380e-07
8.3200e+03,3.3455e-07
8.3300e+03,3.3593e-07
8.3400e+03,3.3767e-07
8.3500e+03,3.3936e-07
8.3600e+03,3.4065e-07
8.3700e+03,3.4133e-07
8.3800e+03,3.4149e-07
8.3900e+03,3.4138e-07
8.4000e+03,3.4124e-07
8.4100e+03,3.4117e-07
8.4200e+03,3.4119e-07
8.4300e+03,3.4121e-07
8.4400e+03,3.4116e-07
8.4500e+03,3.4104e-07
8.4600e+03,3.4091e-07
8.4700e+03,3.4082e-07
8.4800e+03,3.4073e-07
8.4900e+03,3.4063e-07
8.5000e+03,3.4050e-07
8.5100e+03,3.4029e-07
8.5200e+03,3.4007e-07
8.5300e+03,3.3993e-07
8.5400e+03,3.3987e-07
8.5500e+03,3.3979e-07
8.5600e+03,3.3967e-07
8.5700e+03,3.3959e-07
8.5800e+03,3.3973e-07
8.5900e+03,3.4009e-07
8.6000e+03,3.4044e-07
8.6100e+03,3.4065e-07
8.6200e+03,3.4080e-07
8.6300e+03,3.4108e-07
8.6400e+03,3.4158e-07
8.6500e+03,3.4202e-07
8.6600e+03,3.4218e-07
8.6700e+03,3.4215e-07
8.6800e+03,3.4211e-07
8.6900e+03,3.4210e-07
8.7000e+03,3.4212e-07
8.7100e+03,3.4212e-07
8.7200e+03,3.4213e-07
8.7300e+03,3.4213e-07
8.7400e+03,3.4213e-07
8.7500e+03,3.4213e-07
8.7600e+03,3.4212e-07
8.7700e+03,3.4212e-07
8.7800e+03,3.4209e-07
8.7900e+03,3.4195e-07
8.8000e+03,3.4162e-07
8.8100e+03,3.4116e-07
8.8200e+03,3.4065e-07
8.8300e+03,3.4010e-07
8.8400e+03,3.3971e-07
8.8500e+03,3.3956e-07
8.8600e+03,3.3946e-07
8.8700e+03,3.3911e-07
8.8800e+03,3.3854e-07
8.8900e+03,3.3791e-07
8.9000e+03,3.3749e-07
8.9100e+03,3.3746e-07
8.9200e+03,3.3772e-07
8.9300e+03,3.3807e-07
8.9400e+03,3.3837e-07
8.9500e+03,3.3853e-07
8.9600e+03,3.3852e-07
8.9700e+03,3.3837e-07
8.9800e+03,3.3819e-07
8.9900e+03,3.3806e-07
9.0000e+03,3.3803e-07
9.0100e+03,3.3803e-07
9.0200e+03,3.3803e-07
9.0300e+03,3.3801e-07
9.0400e+03,3.3797e-07
9.0500e+03,3.3788e-07
9.0600e+03,3.3773e-07
9.0700e+03,3.3748e-07
