# Time , Side-Flux
0.0000e+00,0.0000e+00
1.0000e+01,2.0644e-13
2.0000e+01,4.1278e-13
3.0000e+01,6.1888e-13
4.0000e+01,8.2465e-13
5.0000e+01,1.0300e-12
6.0000e+01,1.2347e-12
7.0000e+01,1.4388e-12
8.0000e+01,1.6421e-12
9.0000e+01,1.8446e-12
1.0000e+02,2.0460e-12
1.1000e+02,2.2464e-12
1.2000e+02,2.4456e-12
1.3000e+02,2.6435e-12
1.4000e+02,2.8401e-12
1.5000e+02,3.0352e-12
1.6000e+02,3.2288e-12
1.7000e+02,3.4208e-12
1.8000e+02,3.6111e-12
1.9000e+02,3.7996e-12
2.0000e+02,3.9864e-12
2.1000e+02,4.1712e-12
2.2000e+02,4.3541e-12
2.3000e+02,4.5351e-12
2.4000e+02,4.7139e-12
2.5000e+02,4.8907e-12
2.6000e+02,5.0654e-12
2.7000e+02,5.2379e-12
2.8000e+02,5.4082e-12
2.9000e+02,5.5763e-12
3.0000e+02,5.7422e-12
3.1000e+02,5.9057e-12
3.2000e+02,6.0670e-12
3.3000e+02,6.2260e-12
3.4000e+02,6.3827e-12
3.5000e+02,6.5370e-12
3.6000e+02,6.6891e-12
3.7000e+02,6.8388e-12
3.8000e+02,6.9862e-12
3.9000e+02,7.1313e-12
4.0000e+02,7.2741e-12
4.1000e+02,7.4145e-12
4.2000e+02,7.5527e-12
4.3000e+02,7.6887e-12
4.4000e+02,7.8224e-12
4.5000e+02,7.9538e-12
4.6000e+02,8.0831e-12
4.7000e+02,8.2101e-12
4.8000e+02,8.3350e-12
4.9000e+02,8.4577e-12
5.0000e+02,8.5784e-12
5.1000e+02,8.6969e-12
5.2000e+02,8.8133e-12
5.3000e+02,8.9277e-12
5.4000e+02,9.0402e-12
5.5000e+02,9.1506e-12
5.6000e+02,9.2590e-12
5.7000e+02,9.3656e-12
5.8000e+02,9.4702e-12
5.9000e+02,9.5730e-12
6.0000e+02,9.6740e-12
6.1000e+02,9.7731e-12
6.2000e+02,9.8705e-12
6.3000e+02,9.9662e-12
6.4000e+02,1.0060e-11
6.5000e+02,1.0152e-11
6.6000e+02,1.0243e-11
6.7000e+02,1.0332e-11
6.8000e+02,1.0419e-11
6.9000e+02,1.0505e-11
7.0000e+02,1.0589e-11
7.1000e+02,1.0672e-11
7.2000e+02,1.0753e-11
7.3000e+02,1.0833e-11
7.4000e+02,1.0911e-11
7.5000e+02,1.0988e-11
7.6000e+02,1.1064e-11
7.7000e+02,1.1138e-11
7.8000e+02,1.1211e-11
7.9000e+02,1.1282e-11
8.0000e+02,1.1353e-11
8.1000e+02,1.1422e-11
8.2000e+02,1.1489e-11
8.3000e+02,1.1556e-11
8.4000e+02,1.1621e-11
8.5000e+02,1.1685e-11
8.6000e+02,1.1748e-11
8.7000e+02,1.1810e-11
8.8000e+02,1.1871e-11
8.9000e+02,1.1930e-11
9.0000e+02,1.1989e-11
9.1000e+02,1.2046e-11
9.2000e+02,1.2102e-11
9.3000e+02,1.2157e-11
9.4000e+02,1.2212e-11
9.5000e+02,1.2265e-11
9.6000e+02,1.2317e-11
9.7000e+02,1.2368e-11
9.8000e+02,1.2418e-11
9.9000e+02,1.2467e-11
1.0000e+03,1.2515e-11
1.0100e+03,1.2562e-11
1.0200e+03,1.2608e-11
1.0300e+03,1.2653e-11
1.0400e+03,1.2697e-11
1.0500e+03,1.2740e-11
1.0600e+03,1.2782e-11
1.0700e+03,1.2823e-11
1.0800e+03,1.2863e-11
1.0900e+03,1.2902e-11
1.1000e+03,1.2941e-11
1.1100e+03,1.2978e-11
1.1200e+03,1.3014e-11
1.1300e+03,1.3050e-11
1.1400e+03,1.3084e-11
1.1500e+03,1.3118e-11
1.1600e+03,1.3150e-11
1.1700e+03,1.3182e-11
1.1800e+03,1.3213e-11
1.1900e+03,1.3242e-11
1.2000e+03,1.3271e-11
1.2100e+03,1.3299e-11
1.2200e+03,1.3326e-11
1.2300e+03,1.3352e-11
1.2400e+03,1.3377e-11
1.2500e+03,1.3402e-11
1.2600e+03,1.3425e-11
1.2700e+03,1.3447e-11
1.2800e+03,1.3469e-11
1.2900e+03,1.3490e-11
1.3000e+03,1.3510e-11
1.3100e+03,1.3529e-11
1.3200e+03,1.3547e-11
1.3300e+03,1.3564e-11
1.3400e+03,1.3581e-11
1.3500e+03,1.3596e-11
1.3600e+03,1.3611e-11
1.3700e+03,1.3626e-11
1.3800e+03,1.3639e-11
1.3900e+03,1.3652e-11
1.4000e+03,1.3664e-11
1.4100e+03,1.3675e-11
1.4200e+03,1.3686e-11
1.4300e+03,1.3695e-11
1.4400e+03,1.3705e-11
1.4500e+03,1.3714e-11
1.4600e+03,1.3722e-11
1.4700e+03,1.3729e-11
1.4800e+03,1.3736e-11
1.4900e+03,1.3743e-11
1.5000e+03,1.3749e-11
1.5100e+03,1.3754e-11
1.5200e+03,1.3759e-11
1.5300e+03,1.3764e-11
1.5400e+03,1.3768e-11
1.5500e+03,1.3772e-11
1.5600e+03,1.3776e-11
1.5700e+03,1.3779e-11
1.5800e+03,1.3782e-11
1.5900e+03,1.3785e-11
1.6000e+03,1.3787e-11
1.6100e+03,1.3789e-11
1.6200e+03,1.3791e-11
1.6300e+03,1.3793e-11
1.6400e+03,1.3795e-11
1.6500e+03,1.3797e-11
1.6600e+03,1.3798e-11
1.6700e+03,1.3800e-11
1.6800e+03,1.3801e-11
1.6900e+03,1.3803e-11
1.7000e+03,1.3804e-11
1.7100e+03,1.3806e-11
1.7200e+03,1.3807e-11
1.7300e+03,1.3809e-11
1.7400e+03,1.3811e-11
1.7500e+03,1.3813e-11
1.7600e+03,1.3815e-11
1.7700e+03,1.3817e-11
1.7800e+03,1.3820e-11
1.7900e+03,1.3822e-11
1.8000e+03,1.3825e-11
1.8100e+03,1.3828e-11
1.8200e+03,1.3832e-11
1.8300e+03,1.3836e-11
1.8400e+03,1.3840e-11
1.8500e+03,1.3844e-11
1.8600e+03,1.3849e-11
1.8700e+03,1.3854e-11
1.8800e+03,1.3859e-11
1.8900e+03,1.3865e-11
1.9000e+03,1.3871e-11
1.9100e+03,1.3878e-11
1.9200e+03,1.3885e-11
1.9300e+03,1.3892e-11
1.9400e+03,1.3900e-11
1.9500e+03,1.3908e-11
1.9600e+03,1.3917e-11
1.9700e+03,1.3926e-11
1.9800e+03,1.3935e-11
1.9900e+03,1.3945e-11
2.0000e+03,1.3956e-11
2.0100e+03,1.3967e-11
2.0200e+03,1.3978e-11
2.0300e+03,1.3990e-11
2.0400e+03,1.4002e-11
2.0500e+03,1.4015e-11
2.0600e+03,1.4028e-11
2.0700e+03,1.4042e-11
2.0800e+03,1.4056e-11
2.0900e+03,1.4071e-11
2.1000e+03,1.4086e-11
2.1100e+03,1.4101e-11
2.1200e+03,1.4117e-11
2.1300e+03,1.4133e-11
2.1400e+03,1.4150e-11
2.1500e+03,1.4167e-11
2.1600e+03,1.4184e-11
2.1700e+03,1.4202e-11
2.1800e+03,1.4221e-11
2.1900e+03,1.4239e-11
2.2000e+03,1.4258e-11
2.2100e+03,1.4278e-11
2.2200e+03,1.4297e-11
2.2300e+03,1.4317e-11
2.2400e+03,1.4338e-11
2.2500e+03,1.4358e-11
2.2600e+03,1.4379e-11
2.2700e+03,1.4400e-11
2.2800e+03,1.4422e-11
2.2900e+03,1.4443e-11
2.3000e+03,1.4465e-11
2.3100e+03,1.4487e-11
2.3200e+03,1.4510e-11
2.3300e+03,1.4532e-11
2.3400e+03,1.4555e-11
2.3500e+03,1.4578e-11
2.3600e+03,1.4601e-11
2.3700e+03,1.4624e-11
2.3800e+03,1.4648e-11
2.3900e+03,1.4671e-11
2.4000e+03,1.4695e-11
2.4100e+03,1.4718e-11
2.4200e+03,1.4742e-11
2.4300e+03,1.4766e-11
2.4400e+03,1.4790e-11
2.4500e+03,1.4814e-11
2.4600e+03,1.4838e-11
2.4700e+03,1.4863e-11
2.4800e+03,1.4887e-11
2.4900e+03,1.4911e-11
2.5000e+03,1.4936e-11
2.5100e+03,1.4960e-11
2.5200e+03,1.4985e-11
2.5300e+03,1.5010e-11
2.5400e+03,1.5034e-11
2.5500e+03,1.5059e-11
2.5600e+03,1.5083e-11
2.5700e+03,1.5108e-11
2.5800e+03,1.5133e-11
2.5900e+03,1.5158e-11
2.6000e+03,1.5183e-11
2.6100e+03,1.5207e-11
2.6200e+03,1.5232e-11
2.6300e+03,1.5257e-11
2.6400e+03,1.5282e-11
2.6500e+03,1.5307e-11
2.6600e+03,1.5332e-11
2.6700e+03,1.5357e-11
2.6800e+03,1.5382e-11
2.6900e+03,1.5407e-11
2.7000e+03,1.5432e-11
2.7100e+03,1.5457e-11
2.7200e+03,1.5482e-11
2.7300e+03,1.5507e-11
2.7400e+03,1.5532e-11
2.7500e+03,1.5557e-11
2.7600e+03,1.5582e-11
2.7700e+03,1.5607e-11
2.7800e+03,1.5632e-11
2.7900e+03,1.5657e-11
2.8000e+03,1.5683e-11
2.8100e+03,1.5708e-11
2.8200e+03,1.5733e-11
2.8300e+03,1.5758e-11
2.8400e+03,1.5783e-11
2.8500e+03,1.5808e-11
2.8600e+03,1.5833e-11
2.8700e+03,1.5858e-11
2.8800e+03,1.5883e-11
2.8900e+03,1.5908e-11
2.9000e+03,1.5933e-11
2.9100e+03,1.5958e-11
2.9200e+03,1.5983e-11
2.9300e+03,1.6007e-11
2.9400e+03,1.6032e-11
2.9500e+03,1.6057e-11
2.9600e+03,1.6081e-11
2.9700e+03,1.6105e-11
2.9800e+03,1.6130e-11
2.9900e+03,1.6154e-11
3.0000e+03,1.6178e-11
3.0100e+03,1.6202e-11
3.0200e+03,1.6226e-11
3.0300e+03,1.6249e-11
3.0400e+03,1.6273e-11
3.0500e+03,1.6296e-11
3.0600e+03,1.6319e-11
3.0700e+03,1.6342e-11
3.0800e+03,1.6365e-11
3.0900e+03,1.6387e-11
3.1000e+03,1.6409e-11
3.1100e+03,1.6431e-11
3.1200e+03,1.6453e-11
3.1300e+03,1.6475e-11
3.1400e+03,1.6496e-11
3.1500e+03,1.6517e-11
3.1600e+03,1.6538e-11
3.1700e+03,1.6558e-11
3.1800e+03,1.6578e-11
3.1900e+03,1.6598e-11
3.2000e+03,1.6618e-11
3.2100e+03,1.6637e-11
3.2200e+03,1.6656e-11
3.2300e+03,1.6675e-11
3.2400e+03,1.6693e-11
3.2500e+03,1.6711e-11
3.2600e+03,1.6729e-11
3.2700e+03,1.6746e-11
3.2800e+03,1.6763e-11
3.2900e+03,1.6779e-11
3.3000e+03,1.6795e-11
3.3100e+03,1.6811e-11
3.3200e+03,1.6827e-11
3.3300e+03,1.6842e-11
3.3400e+03,1.6856e-11
3.3500e+03,1.6871e-11
3.3600e+03,1.6884e-11
3.3700e+03,1.6898e-11
3.3800e+03,1.6911e-11
3.3900e+03,1.6924e-11
3.4000e+03,1.6936e-11
3.4100e+03,1.6948e-11
3.4200e+03,1.6959e-11
3.4300e+03,1.6971e-11
3.4400e+03,1.6981e-11
3.4500e+03,1.6992e-11
3.4600e+03,1.7002e-11
3.4700e+03,1.7011e-11
3.4800e+03,1.7020e-11
3.4900e+03,1.7029e-11
3.5000e+03,1.7038e-11
3.5100e+03,1.7046e-11
3.5200e+03,1.7054e-11
3.5300e+03,1.7061e-11
3.5400e+03,1.7068e-11
3.5500e+03,1.7075e-11
3.5600e+03,1.7081e-11
3.5700e+03,1.7087e-11
3.5800e+03,1.7093e-11
3.5900e+03,1.7098e-11
3.6000e+03,1.7103e-11
3.6100e+03,1.7108e-11
3.6200e+03,1.7113e-11
3.6300e+03,1.7117e-11
3.6400e+03,1.7121e-11
3.6500e+03,1.7124e-11
3.6600e+03,1.7128e-11
3.6700e+03,1.7131e-11
3.6800e+03,1.7134e-11
3.6900e+03,1.7136e-11
3.7000e+03,1.7139e-11
3.7100e+03,1.7141e-11
3.7200e+03,1.7143e-11
3.7300e+03,1.7145e-11
3.7400e+03,1.7147e-11
3.7500e+03,1.7148e-11
3.7600e+03,1.7149e-11
3.7700e+03,1.7151e-11
3.7800e+03,1.7152e-11
3.7900e+03,1.7152e-11
3.8000e+03,1.7153e-11
3.8100e+03,1.7154e-11
3.8200e+03,1.7154e-11
3.8300e+03,1.7155e-11
3.8400e+03,1.7155e-11
3.8500e+03,1.7155e-11
3.8600e+03,1.7156e-11
3.8700e+03,1.7156e-11
3.8800e+03,1.7156e-11
3.8900e+03,1.7156e-11
3.9000e+03,1.7156e-11
3.9100e+03,1.7156e-11
3.9200e+03,1.7155e-11
3.9300e+03,1.7155e-11
3.9400e+03,1.7155e-11
3.9500e+03,1.7155e-11
3.9600e+03,1.7155e-11
3.9700e+03,1.7155e-11
3.9800e+03,1.7154e-11
3.9900e+03,1.7154e-11
4.0000e+03,1.7154e-11
4.0100e+03,1.7154e-11
4.0200e+03,1.7154e-11
4.0300e+03,1.7154e-11
4.0400e+03,1.7153e-11
4.0500e+03,1.7153e-11
4.0600e+03,1.7153e-11
4.0700e+03,1.7153e-11
4.0800e+03,1.7153e-11
4.0900e+03,1.7153e-11
4.1000e+03,1.7153e-11
4.1100e+03,1.7154e-11
4.1200e+03,1.7154e-11
4.1300e+03,1.7154e-11
4.1400e+03,1.7154e-11
4.1500e+03,1.7155e-11
4.1600e+03,1.7155e-11
4.1700e+03,1.7155e-11
4.1800e+03,1.7156e-11
4.1900e+03,1.7156e-11
4.2000e+03,1.7157e-11
4.2100e+03,1.7157e-11
4.2200e+03,1.7158e-11
4.2300e+03,1.7159e-11
4.2400e+03,1.7159e-11
4.2500e+03,1.7160e-11
4.2600e+03,1.7161e-11
4.2700e+03,1.7162e-11
4.2800e+03,1.7163e-11
4.2900e+03,1.7164e-11
4.3000e+03,1.7165e-11
4.3100e+03,1.7166e-11
4.3200e+03,1.7167e-11
4.3300e+03,1.7168e-11
4.3400e+03,1.7170e-11
4.3500e+03,1.7171e-11
4.3600e+03,1.7172e-11
4.3700e+03,1.7174e-11
4.3800e+03,1.7175e-11
4.3900e+03,1.7177e-11
4.4000e+03,1.7178e-11
4.4100e+03,1.7180e-11
4.4200e+03,1.7181e-11
4.4300e+03,1.7183e-11
4.4400e+03,1.7185e-11
4.4500e+03,1.7187e-11
4.4600e+03,1.7188e-11
4.4700e+03,1.7190e-11
4.4800e+03,1.7192e-11
4.4900e+03,1.7194e-11
4.5000e+03,1.7196e-11
4.5100e+03,1.7199e-11
4.5200e+03,1.7201e-11
4.5300e+03,1.7203e-11
4.5400e+03,1.7205e-11
4.5500e+03,1.7208e-11
4.5600e+03,1.7210e-11
4.5700e+03,1.7213e-11
4.5800e+03,1.7215e-11
4.5900e+03,1.7218e-11
4.6000e+03,1.7221e-11
4.6100e+03,1.7223e-11
4.6200e+03,1.7226e-11
4.6300e+03,1.7229e-11
4.6400e+03,1.7232e-11
4.6500e+03,1.7235e-11
4.6600e+03,1.7238e-11
4.6700e+03,1.7241e-11
4.6800e+03,1.7245e-11
4.6900e+03,1.7248e-11
4.7000e+03,1.7252e-11
4.7100e+03,1.7255e-11
4.7200e+03,1.7259e-11
4.7300e+03,1.7262e-11
4.7400e+03,1.7266e-11
4.7500e+03,1.7270e-11
4.7600e+03,1.7274e-11
4.7700e+03,1.7278e-11
4.7800e+03,1.7282e-11
4.7900e+03,1.7286e-11
4.8000e+03,1.7290e-11
4.8100e+03,1.7295e-11
4.8200e+03,1.7299e-11
4.8300e+03,1.7304e-11
4.8400e+03,1.7308e-11
4.8500e+03,1.7313e-11
4.8600e+03,1.7318e-11
4.8700e+03,1.7323e-11
4.8800e+03,1.7328e-11
4.8900e+03,1.7332e-11
4.9000e+03,1.7338e-11
4.9100e+03,1.7343e-11
4.9200e+03,1.7348e-11
4.9300e+03,1.7353e-11
4.9400e+03,1.7359e-11
4.9500e+03,1.7364e-11
4.9600e+03,1.7369e-11
4.9700e+03,1.7375e-11
4.9800e+03,1.7380e-11
4.9900e+03,1.7386e-11
5.0000e+03,1.7392e-11
5.0100e+03,1.7397e-11
5.0200e+03,1.7403e-11
5.0300e+03,1.7409e-11
5.0400e+03,1.7414e-11
5.0500e+03,1.7420e-11
5.0600e+03,1.7426e-11
5.0700e+03,1.7432e-11
5.0800e+03,1.7437e-11
5.0900e+03,1.7443e-11
5.1000e+03,1.7449e-11
5.1100e+03,1.7454e-11
5.1200e+03,1.7460e-11
5.1300e+03,1.7466e-11
5.1400e+03,1.7471e-11
5.1500e+03,1.7477e-11
5.1600e+03,1.7482e-11
5.1700e+03,1.7487e-11
5.1800e+03,1.7493e-11
5.1900e+03,1.7498e-11
5.2000e+03,1.7503e-11
5.2100e+03,1.7508e-11
5.2200e+03,1.7513e-11
5.2300e+03,1.7518e-11
5.2400e+03,1.7522e-11
5.2500e+03,1.7527e-11
5.2600e+03,1.7531e-11
5.2700e+03,1.7536e-11
5.2800e+03,1.7540e-11
5.2900e+03,1.7544e-11
5.3000e+03,1.7548e-11
5.3100e+03,1.7552e-11
5.3200e+03,1.7555e-11
5.3300e+03,1.7559e-11
5.3400e+03,1.7562e-11
5.3500e+03,1.7565e-11
5.3600e+03,1.7568e-11
5.3700e+03,1.7571e-11
5.3800e+03,1.7574e-11
5.3900e+03,1.7576e-11
5.4000e+03,1.7579e-11
5.4100e+03,1.7581e-11
5.4200e+03,1.7583e-11
5.4300e+03,1.7584e-11
5.4400e+03,1.7586e-11
5.4500e+03,1.7587e-11
5.4600e+03,1.7589e-11
5.4700e+03,1.7590e-11
5.4800e+03,1.7591e-11
5.4900e+03,1.7591e-11
5.5000e+03,1.7592e-11
5.5100e+03,1.7592e-11
5.5200e+03,1.7593e-11
5.5300e+03,1.7593e-11
5.5400e+03,1.7592e-11
5.5500e+03,1.7592e-11
5.5600e+03,1.7591e-11
5.5700e+03,1.7591e-11
5.5800e+03,1.7590e-11
5.5900e+03,1.7589e-11
5.6000e+03,1.7588e-11
5.6100e+03,1.7586e-11
5.6200e+03,1.7585e-11
5.6300e+03,1.7583e-11
5.6400e+03,1.7581e-11
5.6500e+03,1.7579e-11
5.6600e+03,1.7577e-11
5.6700e+03,1.7575e-11
5.6800e+03,1.7572e-11
5.6900e+03,1.7570e-11
5.7000e+03,1.7567e-11
5.7100e+03,1.7564e-11
5.7200e+03,1.7561e-11
5.7300e+03,1.7558e-11
5.7400e+03,1.7555e-11
5.7500e+03,1.7552e-11
5.7600e+03,1.7548e-11
5.7700e+03,1.7544e-11
5.7800e+03,1.7541e-11
5.7900e+03,1.7537e-11
5.8000e+03,1.7533e-11
5.8100e+03,1.7529e-11
5.8200e+03,1.7524e-11
5.8300e+03,1.7520e-11
5.8400e+03,1.7516e-11
5.8500e+03,1.7511e-11
5.8600e+03,1.7507e-11
5.8700e+03,1.7502e-11
5.8800e+03,1.7497e-11
5.8900e+03,1.7492e-11
5.9000e+03,1.7487e-11
5.9100e+03,1.7482e-11
5.9200e+03,1.7477e-11
5.9300e+03,1.7472e-11
5.9400e+03,1.7467e-11
5.9500e+03,1.7462e-11
5.9600e+03,1.7456e-11
5.9700e+03,1.7451e-11
5.9800e+03,1.7445e-11
5.9900e+03,1.7440e-11
6.0000e+03,1.7434e-11
6.0100e+03,1.7428e-11
6.0200e+03,1.7423e-11
6.0300e+03,1.7417e-11
6.0400e+03,1.7411e-11
6.0500e+03,1.7405e-11
6.0600e+03,1.7399e-11
6.0700e+03,1.7393e-11
6.0800e+03,1.7388e-11
6.0900e+03,1.7381e-11
6.1000e+03,1.7375e-11
6.1100e+03,1.7369e-11
6.1200e+03,1.7363e-11
6.1300e+03,1.7357e-11
6.1400e+03,1.7351e-11
6.1500e+03,1.7345e-11
6.1600e+03,1.7338e-11
6.1700e+03,1.7332e-11
6.1800e+03,1.7326e-11
6.1900e+03,1.7319e-11
6.2000e+03,1.7313e-11
6.2100e+03,1.7307e-11
6.2200e+03,1.7300e-11
6.2300e+03,1.7294e-11
6.2400e+03,1.7287e-11
6.2500e+03,1.7281e-11
6.2600e+03,1.7274e-11
6.2700e+03,1.7268e-11
6.2800e+03,1.7261e-11
6.2900e+03,1.7255e-11
6.3000e+03,1.7248e-11
6.3100e+03,1.7242e-11
6.3200e+03,1.7235e-11
6.3300e+03,1.7229e-11
6.3400e+03,1.7222e-11
6.3500e+03,1.7216e-11
6.3600e+03,1.7209e-11
6.3700e+03,1.7203e-11
6.3800e+03,1.7196e-11
6.3900e+03,1.7190e-11
6.4000e+03,1.7183e-11
6.4100e+03,1.7177e-11
6.4200e+03,1.7170e-11
6.4300e+03,1.7164e-11
6.4400e+03,1.7157e-11
6.4500e+03,1.7151e-11
6.4600e+03,1.7145e-11
6.4700e+03,1.7138e-11
6.4800e+03,1.7132e-11
6.4900e+03,1.7126e-11
6.5000e+03,1.7120e-11
6.5100e+03,1.7113e-11
6.5200e+03,1.7107e-11
6.5300e+03,1.7101e-11
6.5400e+03,1.7095e-11
6.5500e+03,1.7089e-11
6.5600e+03,1.7083e-11
6.5700e+03,1.7078e-11
6.5800e+03,1.7072e-11
6.5900e+03,1.7066e-11
6.6000e+03,1.7060e-11
6.6100e+03,1.7055e-11
6.6200e+03,1.7049e-11
6.6300e+03,1.7044e-11
6.6400e+03,1.7038e-11
6.6500e+03,1.7033e-11
6.6600e+03,1.7028e-11
6.6700e+03,1.7023e-11
6.6800e+03,1.7018e-11
6.6900e+03,1.7013e-11
6.7000e+03,1.7008e-11
6.7100e+03,1.7003e-11
6.7200e+03,1.6998e-11
6.7300e+03,1.6994e-11
6.7400e+03,1.6989e-11
6.7500e+03,1.6985e-11
6.7600e+03,1.6980e-11
6.7700e+03,1.6976e-11
6.7800e+03,1.6972e-11
6.7900e+03,1.6968e-11
6.8000e+03,1.6964e-11
6.8100e+03,1.6960e-11
6.8200e+03,1.6957e-11
6.8300e+03,1.6953e-11
6.8400e+03,1.6950e-11
6.8500e+03,1.6946e-11
6.8600e+03,1.6943e-11
6.8700e+03,1.6940e-11
6.8800e+03,1.6937e-11
6.8900e+03,1.6934e-11
6.9000e+03,1.6931e-11
6.9100e+03,1.6928e-11
6.9200e+03,1.6925e-11
6.9300e+03,1.6923e-11
6.9400e+03,1.6920e-11
6.9500e+03,1.6918e-11
6.9600e+03,1.6916e-11
6.9700e+03,1.6914e-11
6.9800e+03,1.6911e-11
6.9900e+03,1.6909e-11
7.0000e+03,1.6908e-11
7.0100e+03,1.6906e-11
7.0200e+03,1.6904e-11
7.0300e+03,1.6902e-11
7.0400e+03,1.6901e-11
7.0500e+03,1.6899e-11
7.0600e+03,1.6898e-11
7.0700e+03,1.6896e-11
7.0800e+03,1.6895e-11
7.0900e+03,1.6894e-11
7.1000e+03,1.6893e-11
7.1100e+03,1.6891e-11
7.1200e+03,1.6890e-11
7.1300e+03,1.6889e-11
7.1400e+03,1.6888e-11
7.1500e+03,1.6887e-11
7.1600e+03,1.6886e-11
7.1700e+03,1.6885e-11
7.1800e+03,1.6884e-11
7.1900e+03,1.6884e-11
7.2000e+03,1.6883e-11
7.2100e+03,1.6882e-11
7.2200e+03,1.6881e-11
7.2300e+03,1.6880e-11
7.2400e+03,1.6879e-11
7.2500e+03,1.6879e-11
7.2600e+03,1.6878e-11
7.2700e+03,1.6877e-11
7.2800e+03,1.6876e-11
7.2900e+03,1.6876e-11
7.3000e+03,1.6875e-11
7.3100e+03,1.6874e-11
7.3200e+03,1.6873e-11
7.3300e+03,1.6872e-11
7.3400e+03,1.6871e-11
7.3500e+03,1.6871e-11
7.3600e+03,1.6870e-11
7.3700e+03,1.6869e-11
7.3800e+03,1.6868e-11
7.3900e+03,1.6867e-11
7.4000e+03,1.6866e-11
7.4100e+03,1.6865e-11
7.4200e+03,1.6864e-11
7.4300e+03,1.6863e-11
7.4400e+03,1.6862e-11
7.4500e+03,1.6861e-11
7.4600e+03,1.6859e-11
7.4700e+03,1.6858e-11
7.4800e+03,1.6857e-11
7.4900e+03,1.6855e-11
7.5000e+03,1.6854e-11
7.5100e+03,1.6853e-11
7.5200e+03,1.6851e-11
7.5300e+03,1.6849e-11
7.5400e+03,1.6848e-11
7.5500e+03,1.6846e-11
7.5600e+03,1.6844e-11
7.5700e+03,1.6842e-11
7.5800e+03,1.6840e-11
7.5900e+03,1.6839e-11
7.6000e+03,1.6836e-11
7.6100e+03,1.6834e-11
7.6200e+03,1.6832e-11
7.6300e+03,1.6830e-11
7.6400e+03,1.6828e-11
7.6500e+03,1.6825e-11
7.6600e+03,1.6823e-11
7.6700e+03,1.6820e-11
7.6800e+03,1.6818e-11
7.6900e+03,1.6815e-11
7.7000e+03,1.6812e-11
7.7100e+03,1.6810e-11
7.7200e+03,1.6807e-11
7.7300e+03,1.6804e-11
7.7400e+03,1.6801e-11
7.7500e+03,1.6798e-11
7.7600e+03,1.6795e-11
7.7700e+03,1.6792e-11
7.7800e+03,1.6789e-11
7.7900e+03,1.6786e-11
7.8000e+03,1.6783e-11
7.8100e+03,1.6779e-11
7.8200e+03,1.6776e-11
7.8300e+03,1.6773e-11
7.8400e+03,1.6770e-11
7.8500e+03,1.6766e-11
7.8600e+03,1.6763e-11
7.8700e+03,1.6760e-11
7.8800e+03,1.6757e-11
7.8900e+03,1.6753e-11
7.9000e+03,1.6750e-11
7.9100e+03,1.6747e-11
7.9200e+03,1.6743e-11
7.9300e+03,1.6740e-11
7.9400e+03,1.6737e-11
7.9500e+03,1.6733e-11
7.9600e+03,1.6730e-11
7.9700e+03,1.6727e-11
7.9800e+03,1.6723e-11
7.9900e+03,1.6720e-11
8.0000e+03,1.6717e-11
8.0100e+03,1.6714e-11
8.0200e+03,1.6710e-11
8.0300e+03,1.6707e-11
8.0400e+03,1.6704e-11
8.0500e+03,1.6700e-11
8.0600e+03,1.6697e-11
8.0700e+03,1.6694e-11
8.0800e+03,1.6691e-11
8.0900e+03,1.6687e-11
8.1000e+03,1.6684e-11
8.1100e+03,1.6681e-11
8.1200e+03,1.6677e-11
8.1300e+03,1.6674e-11
8.1400e+03,1.6670e-11
8.1500e+03,1.6667e-11
8.1600e+03,1.6663e-11
8.1700e+03,1.6660e-11
8.1800e+03,1.6656e-11
8.1900e+03,1.6652e-11
8.2000e+03,1.6648e-11
8.2100e+03,1.6644e-11
8.2200e+03,1.6640e-11
8.2300e+03,1.6636e-11
8.2400e+03,1.6632e-11
8.2500e+03,1.6628e-11
8.2600e+03,1.6624e-11
8.2700e+03,1.6619e-11
8.2800e+03,1.6614e-11
8.2900e+03,1.6610e-11
8.3000e+03,1.6605e-11
8.3100e+03,1.6600e-11
8.3200e+03,1.6595e-11
8.3300e+03,1.6590e-11
8.3400e+03,1.6585e-11
8.3500e+03,1.6579e-11
8.3600e+03,1.6574e-11
8.3700e+03,1.6568e-11
8.3800e+03,1.6563e-11
8.3900e+03,1.6557e-11
8.4000e+03,1.6551e-11
8.4100e+03,1.6545e-11
8.4200e+03,1.6539e-11
8.4300e+03,1.6533e-11
8.4400e+03,1.6527e-11
8.4500e+03,1.6520e-11
8.4600e+03,1.6514e-11
8.4700e+03,1.6508e-11
8.4800e+03,1.6501e-11
8.4900e+03,1.6495e-11
8.5000e+03,1.6488e-11
8.5100e+03,1.6482e-11
8.5200e+03,1.6475e-11
8.5300e+03,1.6469e-11
8.5400e+03,1.6462e-11
8.5500e+03,1.6456e-11
8.5600e+03,1.6449e-11
8.5700e+03,1.6443e-11
8.5800e+03,1.6437e-11
8.5900e+03,1.6431e-11
8.6000e+03,1.6425e-11
8.6100e+03,1.6419e-11
8.6200e+03,1.6413e-11
8.6300e+03,1.6407e-11
8.6400e+03,1.6401e-11
8.6500e+03,1.6396e-11
8.6600e+03,1.6391e-11
8.6700e+03,1.6386e-11
8.6800e+03,1.6381e-11
8.6900e+03,1.6376e-11
8.7000e+03,1.6371e-11
8.7100e+03,1.6367e-11
8.7200e+03,1.6363e-11
8.7300e+03,1.6359e-11
8.7400e+03,1.6355e-11
8.7500e+03,1.6352e-11
8.7600e+03,1.6349e-11
8.7700e+03,1.6346e-11
8.7800e+03,1.6343e-11
8.7900e+03,1.6341e-11
8.8000e+03,1.6339e-11
8.8100e+03,1.6337e-11
8.8200e+03,1.6335e-11
8.8300e+03,1.6334e-11
8.8400e+03,1.6333e-11
8.8500e+03,1.6332e-11
8.8600e+03,1.6331e-11
8.8700e+03,1.6331e-11
8.8800e+03,1.6331e-11
8.8900e+03,1.6331e-11
8.9000e+03,1.6331e-11
8.9100e+03,1.6332e-11
8.9200e+03,1.6333e-11
8.9300e+03,1.6334e-11
8.9400e+03,1.6335e-11
8.9500e+03,1.6336e-11
8.9600e+03,1.6338e-11
8.9700e+03,1.6339e-11
8.9800e+03,1.6341e-11
8.9900e+03,1.6343e-11
9.0000e+03,1.6346e-11
9.0100e+03,1.6348e-11
9.0200e+03,1.6350e-11
9.0300e+03,1.6353e-11
9.0400e+03,1.6356e-11
9.0500e+03,1.6358e-11
9.0600e+03,1.6361e-11
9.0700e+03,1.6364e-11
