# Time , Side-Flux
0.0000e+00,0.0000e+00
1.0000e+01,3.3705e-08
2.0000e+01,6.7322e-08
3.0000e+01,1.0077e-07
4.0000e+01,1.3395e-07
5.0000e+01,1.6679e-07
6.0000e+01,1.9922e-07
7.0000e+01,2.3115e-07
8.0000e+01,2.6252e-07
9.0000e+01,2.9326e-07
1.0000e+02,3.2332e-07
1.1000e+02,3.5265e-07
1.2000e+02,3.8119e-07
1.3000e+02,4.0892e-07
1.4000e+02,4.3580e-07
1.5000e+02,4.6181e-07
1.6000e+02,4.8693e-07
1.7000e+02,5.1114e-07
1.8000e+02,5.3444e-07
1.9000e+02,5.5683e-07
2.0000e+02,5.7831e-07
2.1000e+02,5.9889e-07
2.2000e+02,6.1857e-07
2.3000e+02,6.3738e-07
2.4000e+02,6.5534e-07
2.5000e+02,6.7246e-07
2.6000e+02,6.8876e-07
2.7000e+02,7.0428e-07
2.8000e+02,7.1904e-07
2.9000e+02,7.3306e-07
3.0000e+02,7.4638e-07
3.1000e+02,7.5902e-07
3.2000e+02,7.7101e-07
3.3000e+02,7.8239e-07
3.4000e+02,7.9317e-07
3.5000e+02,8.0340e-07
3.6000e+02,8.1309e-07
3.7000e+02,8.2228e-07
3.8000e+02,8.3098e-07
3.9000e+02,8.3924e-07
4.0000e+02,8.4706e-07
4.1000e+02,8.5449e-07
4.2000e+02,8.6153e-07
4.3000e+02,8.6822e-07
4.4000e+02,8.7457e-07
4.5000e+02,8.8060e-07
4.6000e+02,8.8634e-07
4.7000e+02,8.9180e-07
4.8000e+02,8.9700e-07
4.9000e+02,9.0195e-07
5.0000e+02,9.0668e-07
5.1000e+02,9.1120e-07
5.2000e+02,9.1552e-07
5.3000e+02,9.1966e-07
5.4000e+02,9.2362e-07
5.5000e+02,9.2743e-07
5.6000e+02,9.3108e-07
5.7000e+02,9.3460e-07
5.8000e+02,9.3798e-07
5.9000e+02,9.4125e-07
6.0000e+02,9.4441e-07
6.1000e+02,9.4746e-07
6.2000e+02,9.5042e-07
6.3000e+02,9.5328e-07
6.4000e+02,9.5607e-07
6.5000e+02,9.5877e-07
6.6000e+02,9.6141e-07
6.7000e+02,9.6397e-07
6.8000e+02,9.6647e-07
6.9000e+02,9.6891e-07
7.0000e+02,9.7129e-07
7.1000e+02,9.7361e-07
7.2000e+02,9.7588e-07
7.3000e+02,9.7810e-07
7.4000e+02,9.8027e-07
7.5000e+02,9.8239e-07
7.6000e+02,9.8446e-07
7.7000e+02,9.8648e-07
7.8000e+02,9.8845e-07
7.9000e+02,9.9037e-07
8.0000e+02,9.9225e-07
8.1000e+02,9.9407e-07
8.2000e+02,9.9585e-07
8.3000e+02,9.9757e-07
8.4000e+02,9.9925e-07
8.5000e+02,1.0009e-06
8.6000e+02,1.0025e-06
8.7000e+02,1.0040e-06
8.8000e+02,1.0055e-06
8.9000e+02,1.0069e-06
9.0000e+02,1.0083e-06
9.1000e+02,1.0097e-06
9.2000e+02,1.0110e-06
9.3000e+02,1.0123e-06
9.4000e+02,1.0135e-06
9.5000e+02,1.0148e-06
9.6000e+02,1.0160e-06
9.7000e+02,1.0172e-06
9.8000e+02,1.0184e-06
9.9000e+02,1.0196e-06
1.0000e+03,1.0207e-06
1.0100e+03,1.0219e-06
1.0200e+03,1.0231e-06
1.0300e+03,1.0244e-06
1.0400e+03,1.0256e-06
1.0500e+03,1.0269e-06
1.0600e+03,1.0282e-06
1.0700e+03,1.0295e-06
1.0800e+03,1.0309e-06
1.0900e+03,1.0323e-06
1.1000e+03,1.0337e-06
1.1100e+03,1.0352e-06
1.1200e+03,1.0367e-06
1.1300e+03,1.0382e-06
1.1400e+03,1.0398e-06
1.1500e+03,1.0414e-06
1.1600e+03,1.0431e-06
1.1700e+03,1.0447e-06
1.1800e+03,1.0464e-06
1.1900e+03,1.0481e-06
1.2000e+03,1.0498e-06
1.2100e+03,1.0515e-06
1.2200e+03,1.0532e-06
1.2300e+03,1.0549e-06
1.2400e+03,1.0566e-06
1.2500e+03,1.0583e-06
1.2600e+03,1.0599e-06
1.2700e+03,1.0615e-06
1.2800e+03,1.0631e-06
1.2900e+03,1.0646e-06
1.3000e+03,1.0660e-06
1.3100e+03,1.0674e-06
1.3200e+03,1.0687e-06
1.3300e+03,1.0700e-06
1.3400e+03,1.0711e-06
1.3500e+03,1.0722e-06
1.3600e+03,1.0733e-06
1.3700e+03,1.0742e-06
1.3800e+03,1.0751e-06
1.3900e+03,1.0758e-06
1.4000e+03,1.0765e-06
1.4100e+03,1.0771e-06
1.4200e+03,1.0776e-06
1.4300e+03,1.0780e-06
1.4400e+03,1.0784e-06
1.4500e+03,1.0786e-06
1.4600e+03,1.0788e-06
1.4700e+03,1.0789e-06
1.4800e+03,1.0789e-06
1.4900e+03,1.0788e-06
1.5000e+03,1.0786e-06
1.5100e+03,1.0784e-06
1.5200e+03,1.0781e-06
1.5300e+03,1.0777e-06
1.5400e+03,1.0772e-06
1.5500e+03,1.0767e-06
1.5600e+03,1.0761e-06
1.5700e+03,1.0755e-06
1.5800e+03,1.0748e-06
1.5900e+03,1.0740e-06
1.6000e+03,1.0732e-06
1.6100e+03,1.0723e-06
1.6200e+03,1.0714e-06
1.6300e+03,1.0704e-06
1.6400e+03,1.0694e-06
1.6500e+03,1.0683e-06
1.6600e+03,1.0672e-06
1.6700e+03,1.0661e-06
1.6800e+03,1.0649e-06
1.6900e+03,1.0637e-06
1.7000e+03,1.0625e-06
1.7100e+03,1.0613e-06
1.7200e+03,1.0600e-06
1.7300e+03,1.0587e-06
1.7400e+03,1.0574e-06
1.7500e+03,1.0561e-06
1.7600e+03,1.0547e-06
1.7700e+03,1.0534e-06
1.7800e+03,1.0521e-06
1.7900e+03,1.0507e-06
1.8000e+03,1.0494e-06
1.8100e+03,1.0481e-06
1.8200e+03,1.0468e-06
1.8300e+03,1.0455e-06
1.8400e+03,1.0442e-06
1.8500e+03,1.0429e-06
1.8600e+03,1.0417e-06
1.8700e+03,1.0404e-06
1.8800e+03,1.0392e-06
1.8900e+03,1.0380e-06
1.9000e+03,1.0369e-06
1.9100e+03,1.0357e-06
1.9200e+03,1.0346e-06
1.9300e+03,1.0335e-06
1.9400e+03,1.0325e-06
1.9500e+03,1.0314e-06
1.9600e+03,1.0304e-06
1.9700e+03,1.0294e-06
1.9800e+03,1.0285e-06
1.9900e+03,1.0276e-06
2.0000e+03,1.0267e-06
2.0100e+03,1.0258e-06
2.0200e+03,1.0249e-06
2.0300e+03,1.0241e-06
2.0400e+03,1.0233e-06
2.0500e+03,1.0226e-06
2.0600e+03,1.0218e-06
2.0700e+03,1.0211e-06
2.0800e+03,1.0204e-06
2.0900e+03,1.0198e-06
2.1000e+03,1.0191e-06
2.1100e+03,1.0185e-06
2.1200e+03,1.0180e-06
2.1300e+03,1.0174e-06
2.1400e+03,1.0170e-06
2.1500e+03,1.0165e-06
2.1600e+03,1.0161e-06
2.1700e+03,1.0157e-06
2.1800e+03,1.0154e-06
2.1900e+03,1.0151e-06
2.2000e+03,1.0149e-06
2.2100e+03,1.0148e-06
2.2200e+03,1.0146e-06
2.2300e+03,1.0146e-06
2.2400e+03,1.0145e-06
2.2500e+03,1.0146e-06
2.2600e+03,1.0147e-06
2.2700e+03,1.0148e-06
2.2800e+03,1.0150e-06
2.2900e+03,1.0153e-06
2.3000e+03,1.0156e-06
2.3100e+03,1.0160e-06
2.3200e+03,1.0164e-06
2.3300e+03,1.0168e-06
2.3400e+03,1.0173e-06
2.3500e+03,1.0179e-06
2.3600e+03,1.0185e-06
2.3700e+03,1.0191e-06
2.3800e+03,1.0197e-06
2.3900e+03,1.0204e-06
2.4000e+03,1.0211e-06
2.4100e+03,1.0219e-06
2.4200e+03,1.0226e-06
2.4300e+03,1.0234e-06
2.4400e+03,1.0241e-06
2.4500e+03,1.0249e-06
2.4600e+03,1.0257e-06
2.4700e+03,1.0265e-06
2.4800e+03,1.0272e-06
2.4900e+03,1.0280e-06
2.5000e+03,1.0288e-06
2.5100e+03,1.0295e-06
2.5200e+03,1.0302e-06
2.5300e+03,1.0310e-06
2.5400e+03,1.0317e-06
2.5500e+03,1.0323e-06
2.5600e+03,1.0330e-06
2.5700e+03,1.0336e-06
2.5800e+03,1.0342e-06
2.5900e+03,1.0348e-06
2.6000e+03,1.0354e-06
2.6100e+03,1.0359e-06
2.6200e+03,1.0364e-06
2.6300e+03,1.0369e-06
2.6400e+03,1.0373e-06
2.6500e+03,1.0377e-06
2.6600e+03,1.0381e-06
2.6700e+03,1.0385e-06
2.6800e+03,1.0388e-06
2.6900e+03,1.0391e-06
2.7000e+03,1.0394e-06
2.7100e+03,1.0397e-06
2.7200e+03,1.0400e-06
2.7300e+03,1.0402e-06
2.7400e+03,1.0404e-06
2.7500e+03,1.0407e-06
2.7600e+03,1.0408e-06
2.7700e+03,1.0410e-06
2.7800e+03,1.0412e-06
2.7900e+03,1.0414e-06
2.8000e+03,1.0415e-06
2.8100e+03,1.0417e-06
2.8200e+03,1.0418e-06
2.8300e+03,1.0420e-06
2.8400e+03,1.0421e-06
2.8500e+03,1.0423e-06
2.8600e+03,1.0424e-06
2.8700e+03,1.0426e-06
2.8800e+03,1.0427e-06
2.8900e+03,1.0429e-06
2.9000e+03,1.0431e-06
2.9100e+03,1.0433e-06
2.9200e+03,1.0435e-06
2.9300e+03,1.0437e-06
2.9400e+03,1.0439e-06
2.9500e+03,1.0441e-06
2.9600e+03,1.0444e-06
2.9700e+03,1.0446e-06
2.9800e+03,1.0449e-06
2.9900e+03,1.0452e-06
3.0000e+03,1.0455e-06
3.0100e+03,1.0458e-06
3.0200e+03,1.0462e-06
3.0300e+03,1.0466e-06
3.0400e+03,1.0470e-06
3.0500e+03,1.0474e-06
3.0600e+03,1.0478e-06
3.0700e+03,1.0483e-06
3.0800e+03,1.0488e-06
3.0900e+03,1.0493e-06
3.1000e+03,1.0498e-06
3.1100e+03,1.0504e-06
3.1200e+03,1.0510e-06
3.1300e+03,1.0516e-06
3.1400e+03,1.0522e-06
3.1500e+03,1.0528e-06
3.1600e+03,1.0535e-06
3.1700e+03,1.0542e-06
3.1800e+03,1.0549e-06
3.1900e+03,1.0556e-06
3.2000e+03,1.0563e-06
3.2100e+03,1.0570e-06
3.2200e+03,1.0577e-06
3.2300e+03,1.0585e-06
3.2400e+03,1.0592e-06
3.2500e+03,1.0600e-06
3.2600e+03,1.0607e-06
3.2700e+03,1.0614e-06
3.2800e+03,1.0622e-06
3.2900e+03,1.0629e-06
3.3000e+03,1.0637e-06
3.3100e+03,1.0644e-06
3.3200e+03,1.0651e-06
3.3300e+03,1.0658e-06
3.3400e+03,1.0665e-06
3.3500e+03,1.0672e-06
3.3600e+03,1.0678e-06
3.3700e+03,1.0685e-06
3.3800e+03,1.0691e-06
3.3900e+03,1.0697e-06
3.4000e+03,1.0703e-06
3.4100e+03,1.0709e-06
3.4200e+03,1.0714e-06
3.4300e+03,1.0719e-06
3.4400e+03,1.0724e-06
3.4500e+03,1.0729e-06
3.4600e+03,1.0734e-06
3.4700e+03,1.0738e-06
3.4800e+03,1.0742e-06
3.4900e+03,1.0746e-06
3.5000e+03,1.0749e-06
3.5100e+03,1.0752e-06
3.5200e+03,1.0755e-06
3.5300e+03,1.0758e-06
3.5400e+03,1.0760e-06
3.5500e+03,1.0763e-06
3.5600e+03,1.0764e-06
3.5700e+03,1.0766e-06
3.5800e+03,1.0767e-06
3.5900e+03,1.0768e-06
3.6000e+03,1.0769e-06
3.6100e+03,1.0770e-06
3.6200e+03,1.0770e-06
3.6300e+03,1.0770e-06
3.6400e+03,1.0769e-06
3.6500e+03,1.0769e-06
3.6600e+03,1.0768e-06
3.6700e+03,1.0767e-06
3.6800e+03,1.0765e-06
3.6900e+03,1.0764e-06
3.7000e+03,1.0762e-06
3.7100e+03,1.0760e-06
3.7200e+03,1.0757e-06
3.7300e+03,1.0755e-06
3.7400e+03,1.0752e-06
3.7500e+03,1.0749e-06
3.7600e+03,1.0746e-06
3.7700e+03,1.0743e-06
3.7800e+03,1.0739e-06
3.7900e+03,1.0736e-06
3.8000e+03,1.0732e-06
3.8100e+03,1.0728e-06
3.8200e+03,1.0724e-06
3.8300e+03,1.0720e-06
3.8400e+03,1.0716e-06
3.8500e+03,1.0711e-06
3.8600e+03,1.0707e-06
3.8700e+03,1.0703e-06
3.8800e+03,1.0698e-06
3.8900e+03,1.0694e-06
3.9000e+03,1.0690e-06
3.9100e+03,1.0685e-06
3.9200e+03,1.0681e-06
3.9300e+03,1.0677e-06
3.9400e+03,1.0672e-06
3.9500e+03,1.0668e-06
3.9600e+03,1.0664e-06
3.9700e+03,1.0660e-06
3.9800e+03,1.0656e-06
3.9900e+03,1.0653e-06
4.0000e+03,1.0649e-06
4.0100e+03,1.0646e-06
4.0200e+03,1.0642e-06
4.0300e+03,1.0639e-06
4.0400e+03,1.0636e-06
4.0500e+03,1.0633e-06
4.0600e+03,1.0631e-06
4.0700e+03,1.0628e-06
4.0800e+03,1.0626e-06
4.0900e+03,1.0624e-06
4.1000e+03,1.0622e-06
4.1100e+03,1.0620e-06
4.1200e+03,1.0618e-06
4.1300e+03,1.0617e-06
4.1400e+03,1.0615e-06
4.1500e+03,1.0614e-06
4.1600e+03,1.0613e-06
4.1700e+03,1.0612e-06
4.1800e+03,1.0611e-06
4.1900e+03,1.0611e-06
4.2000e+03,1.0610e-06
4.2100e+03,1.0610e-06
4.2200e+03,1.0609e-06
4.2300e+03,1.0609e-06
4.2400e+03,1.0609e-06
4.2500e+03,1.0609e-06
4.2600e+03,1.0608e-06
4.2700e+03,1.0608e-06
4.2800e+03,1.0608e-06
4.2900e+03,1.0608e-06
4.3000e+03,1.0609e-06
4.3100e+03,1.0609e-06
4.3200e+03,1.0609e-06
4.3300e+03,1.0609e-06
4.3400e+03,1.0609e-06
4.3500e+03,1.0609e-06
4.3600e+03,1.0609e-06
4.3700e+03,1.0610e-06
4.3800e+03,1.0610e-06
4.3900e+03,1.0610e-06
4.4000e+03,1.0610e-06
4.4100e+03,1.0610e-06
4.4200e+03,1.0611e-06
4.4300e+03,1.0611e-06
4.4400e+03,1.0611e-06
4.4500e+03,1.0611e-06
4.4600e+03,1.0612e-06
4.4700e+03,1.0612e-06
4.4800e+03,1.0612e-06
4.4900e+03,1.0612e-06
4.5000e+03,1.0612e-06
4.5100e+03,1.0613e-06
4.5200e+03,1.0613e-06
4.5300e+03,1.0613e-06
4.5400e+03,1.0613e-06
4.5500e+03,1.0614e-06
4.5600e+03,1.0614e-06
4.5700e+03,1.0614e-06
4.5800e+03,1.0614e-06
4.5900e+03,1.0615e-06
4.6000e+03,1.0615e-06
4.6100e+03,1.0615e-06
4.6200e+03,1.0615e-06
4.6300e+03,1.0615e-06
4.6400e+03,1.0616e-06
4.6500e+03,1.0616e-06
4.6600e+03,1.0616e-06
4.6700e+03,1.0616e-06
4.6800e+03,1.0616e-06
4.6900e+03,1.0616e-06
4.7000e+03,1.0616e-06
4.7100e+03,1.0616e-06
4.7200e+03,1.0616e-06
4.7300e+03,1.0615e-06
4.7400e+03,1.0615e-06
4.7500e+03,1.0615e-06
4.7600e+03,1.0615e-06
4.7700e+03,1.0614e-06
4.7800e+03,1.0614e-06
4.7900e+03,1.0613e-06
4.8000e+03,1.0612e-06
4.8100e+03,1.0612e-06
4.8200e+03,1.0611e-06
4.8300e+03,1.0610e-06
4.8400e+03,1.0609e-06
4.8500e+03,1.0609e-06
4.8600e+03,1.0608e-06
4.8700e+03,1.0607e-06
4.8800e+03,1.0606e-06
4.8900e+03,1.0604e-06
4.9000e+03,1.0603e-06
4.9100e+03,1.0602e-06
4.9200e+03,1.0601e-06
4.9300e+03,1.0600e-06
4.9400e+03,1.0598e-06
4.9500e+03,1.0597e-06
4.9600e+03,1.0595e-06
4.9700e+03,1.0594e-06
4.9800e+03,1.0593e-06
4.9900e+03,1.0591e-06
5.0000e+03,1.0590e-06
5.0100e+03,1.0588e-06
5.0200e+03,1.0587e-06
5.0300e+03,1.0585e-06
5.0400e+03,1.0584e-06
5.0500e+03,1.0582e-06
5.0600e+03,1.0581e-06
5.0700e+03,1.0579e-06
5.0800e+03,1.0578e-06
5.0900e+03,1.0576e-06
5.1000e+03,1.0575e-06
5.1100e+03,1.0573e-06
5.1200e+03,1.0572e-06
5.1300e+03,1.0570e-06
5.1400e+03,1.0569e-06
5.1500e+03,1.0567e-06
5.1600e+03,1.0566e-06
5.1700e+03,1.0564e-06
5.1800e+03,1.0563e-06
5.1900e+03,1.0561e-06
5.2000e+03,1.0560e-06
5.2100e+03,1.0558e-06
5.2200e+03,1.0557e-06
5.2300e+03,1.0555e-06
5.2400e+03,1.0554e-06
5.2500e+03,1.0552e-06
5.2600e+03,1.0551e-06
5.2700e+03,1.0549e-06
5.2800e+03,1.0548e-06
5.2900e+03,1.0547e-06
5.3000e+03,1.0546e-06
5.3100e+03,1.0545e-06
5.3200e+03,1.0544e-06
5.3300e+03,1.0544e-06
5.3400e+03,1.0543e-06
5.3500e+03,1.0543e-06
5.3600e+03,1.0542e-06
5.3700e+03,1.0542e-06
5.3800e+03,1.0542e-06
5.3900e+03,1.0542e-06
5.4000e+03,1.0543e-06
5.4100e+03,1.0543e-06
5.4200e+03,1.0543e-06
5.4300e+03,1.0544e-06
5.4400e+03,1.0545e-06
5.4500e+03,1.0546e-06
5.4600e+03,1.0547e-06
5.4700e+03,1.0548e-06
5.4800e+03,1.0549e-06
5.4900e+03,1.0550e-06
5.5000e+03,1.0551e-06
5.5100e+03,1.0552e-06
5.5200e+03,1.0553e-06
5.5300e+03,1.0554e-06
5.5400e+03,1.0555e-06
5.5500e+03,1.0557e-06
5.5600e+03,1.0558e-06
5.5700e+03,1.0559e-06
5.5800e+03,1.0560e-06
5.5900e+03,1.0561e-06
5.6000e+03,1.0562e-06
5.6100e+03,1.0563e-06
5.6200e+03,1.0564e-06
5.6300e+03,1.0565e-06
5.6400e+03,1.0566e-06
5.6500e+03,1.0567e-06
5.6600e+03,1.0568e-06
5.6700e+03,1.0569e-06
5.6800e+03,1.0570e-06
5.6900e+03,1.0571e-06
5.7000e+03,1.0572e-06
5.7100e+03,1.0573e-06
5.7200e+03,1.0574e-06
5.7300e+03,1.0574e-06
5.7400e+03,1.0575e-06
5.7500e+03,1.0576e-06
5.7600e+03,1.0576e-06
5.7700e+03,1.0577e-06
5.7800e+03,1.0577e-06
5.7900e+03,1.0577e-06
5.8000e+03,1.0577e-06
5.8100e+03,1.0577e-06
5.8200e+03,1.0577e-06
5.8300e+03,1.0577e-06
5.8400e+03,1.0576e-06
5.8500e+03,1.0575e-06
5.8600e+03,1.0574e-06
5.8700e+03,1.0573e-06
5.8800e+03,1.0572e-06
5.8900e+03,1.0570e-06
5.9000e+03,1.0568e-06
5.9100e+03,1.0566e-06
5.9200e+03,1.0563e-06
5.9300e+03,1.0561e-06
5.9400e+03,1.0558e-06
5.9500e+03,1.0555e-06
5.9600e+03,1.0552e-06
5.9700e+03,1.0549e-06
5.9800e+03,1.0546e-06
5.9900e+03,1.0543e-06
6.0000e+03,1.0539e-06
6.0100e+03,1.0536e-06
6.0200e+03,1.0533e-06
6.0300e+03,1.0530e-06
6.0400e+03,1.0527e-06
6.0500e+03,1.0524e-06
6.0600e+03,1.0521e-06
6.0700e+03,1.0519e-06
6.0800e+03,1.0516e-06
6.0900e+03,1.0514e-06
6.1000e+03,1.0513e-06
6.1100e+03,1.0511e-06
6.1200e+03,1.0510e-06
6.1300e+03,1.0509e-06
6.1400e+03,1.0508e-06
6.1500e+03,1.0508e-06
6.1600e+03,1.0507e-06
6.1700e+03,1.0507e-06
6.1800e+03,1.0507e-06
6.1900e+03,1.0506e-06
6.2000e+03,1.0506e-06
6.2100e+03,1.0506e-06
6.2200e+03,1.0506e-06
6.2300e+03,1.0506e-06
6.2400e+03,1.0506e-06
6.2500e+03,1.0505e-06
6.2600e+03,1.0505e-06
6.2700e+03,1.0504e-06
6.2800e+03,1.0503e-06
6.2900e+03,1.0502e-06
6.3000e+03,1.0501e-06
6.3100e+03,1.0499e-06
6.3200e+03,1.0497e-06
6.3300e+03,1.0496e-06
6.3400e+03,1.0494e-06
6.3500e+03,1.0491e-06
6.3600e+03,1.0489e-06
6.3700e+03,1.0487e-06
6.3800e+03,1.0484e-06
6.3900e+03,1.0481e-06
6.4000e+03,1.0479e-06
6.4100e+03,1.0476e-06
6.4200e+03,1.0473e-06
6.4300e+03,1.0471e-06
6.4400e+03,1.0468e-06
6.4500e+03,1.0466e-06
6.4600e+03,1.0463e-06
6.4700e+03,1.0461e-06
6.4800e+03,1.0458e-06
6.4900e+03,1.0456e-06
6.5000e+03,1.0454e-06
6.5100e+03,1.0452e-06
6.5200e+03,1.0450e-06
6.5300e+03,1.0448e-06
6.5400e+03,1.0446e-06
6.5500e+03,1.0445e-06
6.5600e+03,1.0443e-06
6.5700e+03,1.0441e-06
6.5800e+03,1.0440e-06
6.5900e+03,1.0438e-06
6.6000e+03,1.0436e-06
6.6100e+03,1.0435e-06
6.6200e+03,1.0433e-06
6.6300e+03,1.0431e-06
6.6400e+03,1.0429e-06
6.6500e+03,1.0427e-06
6.6600e+03,1.0425e-06
6.6700e+03,1.0422e-06
6.6800e+03,1.0420e-06
6.6900e+03,1.0417e-06
6.7000e+03,1.0414e-06
6.7100e+03,1.0411e-06
6.7200e+03,1.0407e-06
6.7300e+03,1.0404e-06
6.7400e+03,1.0400e-06
6.7500e+03,1.0396e-06
6.7600e+03,1.0391e-06
6.7700e+03,1.0387e-06
6.7800e+03,1.0382e-06
6.7900e+03,1.0376e-06
6.8000e+03,1.0371e-06
6.8100e+03,1.0365e-06
6.8200e+03,1.0359e-06
6.8300e+03,1.0353e-06
6.8400e+03,1.0347e-06
6.8500e+03,1.0340e-06
6.8600e+03,1.0333e-06
6.8700e+03,1.0326e-06
6.8800e+03,1.0319e-06
6.8900e+03,1.0312e-06
6.9000e+03,1.0305e-06
6.9100e+03,1.0298e-06
6.9200e+03,1.0290e-06
6.9300e+03,1.0283e-06
6.9400e+03,1.0276e-06
6.9500e+03,1.0269e-06
6.9600e+03,1.0262e-06
6.9700e+03,1.0255e-06
6.9800e+03,1.0249e-06
6.9900e+03,1.0243e-06
7.0000e+03,1.0237e-06
7.0100e+03,1.0232e-06
7.0200e+03,1.0227e-06
7.0300e+03,1.0222e-06
7.0400e+03,1.0218e-06
7.0500e+03,1.0214e-06
7.0600e+03,1.0211e-06
7.0700e+03,1.0209e-06
7.0800e+03,1.0207e-06
7.0900e+03,1.0206e-06
7.1000e+03,1.0205e-06
7.1100e+03,1.0205e-06
7.1200e+03,1.0205e-06
7.1300e+03,1.0206e-06
7.1400e+03,1.0207e-06
7.1500e+03,1.0209e-06
7.1600e+03,1.0212e-06
7.1700e+03,1.0215e-06
7.1800e+03,1.0218e-06
7.1900e+03,1.0222e-06
7.2000e+03,1.0226e-06
7.2100e+03,1.0230e-06
7.2200e+03,1.0235e-06
7.2300e+03,1.0240e-06
7.2400e+03,1.0246e-06
7.2500e+03,1.0251e-06
7.2600e+03,1.0257e-06
7.2700e+03,1.0262e-06
7.2800e+03,1.0268e-06
7.2900e+03,1.0274e-06
7.3000e+03,1.0280e-06
7.3100e+03,1.0286e-06
7.3200e+03,1.0292e-06
7.3300e+03,1.0297e-06
7.3400e+03,1.0303e-06
7.3500e+03,1.0308e-06
7.3600e+03,1.0314e-06
7.3700e+03,1.0319e-06
7.3800e+03,1.0323e-06
7.3900e+03,1.0328e-06
7.4000e+03,1.0332e-06
7.4100e+03,1.0336e-06
7.4200e+03,1.0340e-06
7.4300e+03,1.0343e-06
7.4400e+03,1.0346e-06
7.4500e+03,1.0349e-06
7.4600e+03,1.0351e-06
7.4700e+03,1.0353e-06
7.4800e+03,1.0355e-06
7.4900e+03,1.0356e-06
7.5000e+03,1.0357e-06
7.5100e+03,1.0357e-06
7.5200e+03,1.0357e-06
7.5300e+03,1.0357e-06
7.5400e+03,1.0356e-06
7.5500e+03,1.0354e-06
7.5600e+03,1.0353e-06
7.5700e+03,1.0351e-06
7.5800e+03,1.0348e-06
7.5900e+03,1.0346e-06
7.6000e+03,1.0343e-06
7.6100e+03,1.0339e-06
7.6200e+03,1.0335e-06
7.6300e+03,1.0331e-06
7.6400e+03,1.0327e-06
7.6500e+03,1.0322e-06
7.6600e+03,1.0317e-06
7.6700e+03,1.0312e-06
7.6800e+03,1.0306e-06
7.6900e+03,1.0300e-06
7.7000e+03,1.0294e-06
7.7100e+03,1.0288e-06
7.7200e+03,1.0282e-06
7.7300e+03,1.0275e-06
7.7400e+03,1.0269e-06
7.7500e+03,1.0262e-06
7.7600e+03,1.0255e-06
7.7700e+03,1.0248e-06
7.7800e+03,1.0242e-06
7.7900e+03,1.0235e-06
7.8000e+03,1.0228e-06
7.8100e+03,1.0221e-06
7.8200e+03,1.0214e-06
7.8300e+03,1.0207e-06
7.8400e+03,1.0200e-06
7.8500e+03,1.0194e-06
7.8600e+03,1.0187e-06
7.8700e+03,1.0180e-06
7.8800e+03,1.0174e-06
7.8900e+03,1.0168e-06
7.9000e+03,1.0162e-06
7.9100e+03,1.0156e-06
7.9200e+03,1.0151e-06
7.9300e+03,1.0146e-06
7.9400e+03,1.0141e-06
7.9500e+03,1.0136e-06
7.9600e+03,1.0132e-06
7.9700e+03,1.0128e-06
7.9800e+03,1.0125e-06
7.9900e+03,1.0121e-06
8.0000e+03,1.0119e-06
8.0100e+03,1.0116e-06
8.0200e+03,1.0115e-06
8.0300e+03,1.0113e-06
8.0400e+03,1.0112e-06
8.0500e+03,1.0112e-06
8.0600e+03,1.0112e-06
8.0700e+03,1.0112e-06
8.0800e+03,1.0113e-06
8.0900e+03,1.0115e-06
8.1000e+03,1.0117e-06
8.1100e+03,1.0119e-06
8.1200e+03,1.0122e-06
8.1300e+03,1.0125e-06
8.1400e+03,1.0128e-06
8.1500e+03,1.0132e-06
8.1600e+03,1.0136e-06
8.1700e+03,1.0140e-06
8.1800e+03,1.0144e-06
8.1900e+03,1.0149e-06
8.2000e+03,1.0154e-06
8.2100e+03,1.0158e-06
8.2200e+03,1.0163e-06
8.2300e+03,1.0168e-06
8.2400e+03,1.0172e-06
8.2500e+03,1.0177e-06
8.2600e+03,1.0181e-06
8.2700e+03,1.0185e-06
8.2800e+03,1.0188e-06
8.2900e+03,1.0191e-06
8.3000e+03,1.0193e-06
8.3100e+03,1.0195e-06
8.3200e+03,1.0197e-06
8.3300e+03,1.0197e-06
8.3400e+03,1.0197e-06
8.3500e+03,1.0197e-06
8.3600e+03,1.0195e-06
8.3700e+03,1.0193e-06
8.3800e+03,1.0189e-06
8.3900e+03,1.0185e-06
8.4000e+03,1.0180e-06
8.4100e+03,1.0174e-06
8.4200e+03,1.0168e-06
8.4300e+03,1.0160e-06
8.4400e+03,1.0152e-06
8.4500e+03,1.0142e-06
8.4600e+03,1.0132e-06
8.4700e+03,1.0121e-06
8.4800e+03,1.0109e-06
8.4900e+03,1.0096e-06
8.5000e+03,1.0083e-06
8.5100e+03,1.0069e-06
8.5200e+03,1.0054e-06
8.5300e+03,1.0039e-06
8.5400e+03,1.0023e-06
8.5500e+03,1.0007e-06
8.5600e+03,9.9906e-07
8.5700e+03,9.9737e-07
8.5800e+03,9.9566e-07
8.5900e+03,9.9392e-07
8.6000e+03,9.9217e-07
8.6100e+03,9.9041e-07
8.6200e+03,9.8864e-07
8.6300e+03,9.8688e-07
8.6400e+03,9.8514e-07
8.6500e+03,9.8341e-07
8.6600e+03,9.8170e-07
8.6700e+03,9.8002e-07
8.6800e+03,9.7837e-07
8.6900e+03,9.7676e-07
8.7000e+03,9.7519e-07
8.7100e+03,9.7368e-07
8.7200e+03,9.7221e-07
8.7300e+03,9.7080e-07
8.7400e+03,9.6946e-07
8.7500e+03,9.6818e-07
8.7600e+03,9.6697e-07
8.7700e+03,9.6584e-07
8.7800e+03,9.6478e-07
8.7900e+03,9.6380e-07
8.8000e+03,9.6291e-07
8.8100e+03,9.6211e-07
8.8200e+03,9.6141e-07
8.8300e+03,9.6080e-07
8.8400e+03,9.6029e-07
8.8500e+03,9.5989e-07
8.8600e+03,9.5960e-07
8.8700e+03,9.5943e-07
8.8800e+03,9.5938e-07
8.8900e+03,9.5944e-07
8.9000e+03,9.5964e-07
8.9100e+03,9.5997e-07
8.9200e+03,9.6044e-07
8.9300e+03,9.6105e-07
8.9400e+03,9.6180e-07
8.9500e+03,9.6270e-07
8.9600e+03,9.6375e-07
8.9700e+03,9.6496e-07
8.9800e+03,9.6632e-07
8.9900e+03,9.6783e-07
9.0000e+03,9.6951e-07
9.0100e+03,9.7134e-07
9.0200e+03,9.7332e-07
9.0300e+03,9.7546e-07
9.0400e+03,9.7776e-07
9.0500e+03,9.8020e-07
9.0600e+03,9.8279e-07
9.0700e+03,9.8553e-07
