# Time , Side-Flux
0.0000e+00,0.0000e+00
1.0000e+01,1.0639e-05
2.0000e+01,2.0913e-05
3.0000e+01,3.0516e-05
4.0000e+01,3.9237e-05
5.0000e+01,4.6973e-05
6.0000e+01,5.3707e-05
7.0000e+01,5.9488e-05
8.0000e+01,6.4401e-05
9.0000e+01,6.8546e-05
1.0000e+02,7.2025e-05
1.1000e+02,7.4937e-05
1.2000e+02,7.7367e-05
1.3000e+02,7.9393e-05
1.4000e+02,8.1081e-05
1.5000e+02,8.2485e-05
1.6000e+02,8.3654e-05
1.7000e+02,8.4626e-05
1.8000e+02,8.5436e-05
1.9000e+02,8.6109e-05
2.0000e+02,8.6670e-05
2.1000e+02,8.7138e-05
2.2000e+02,8.7527e-05
2.3000e+02,8.7853e-05
2.4000e+02,8.8126e-05
2.5000e+02,8.8355e-05
2.6000e+02,8.8548e-05
2.7000e+02,8.8711e-05
2.8000e+02,8.8850e-05
2.9000e+02,8.8969e-05
3.0000e+02,8.9072e-05
3.1000e+02,8.9162e-05
3.2000e+02,8.9240e-05
3.3000e+02,8.9309e-05
3.4000e+02,8.9370e-05
3.5000e+02,8.9424e-05
3.6000e+02,8.9472e-05
3.7000e+02,8.9515e-05
3.8000e+02,8.9554e-05
3.9000e+02,8.9587e-05
4.0000e+02,8.9617e-05
4.1000e+02,8.9642e-05
4.2000e+02,8.9663e-05
4.3000e+02,8.9682e-05
4.4000e+02,8.9699e-05
4.5000e+02,8.9715e-05
4.6000e+02,8.9729e-05
4.7000e+02,8.9740e-05
4.8000e+02,8.9749e-05
4.9000e+02,8.9755e-05
5.0000e+02,8.9759e-05
5.1000e+02,8.9760e-05
5.2000e+02,8.9759e-05
5.3000e+02,8.9756e-05
5.4000e+02,8.9751e-05
5.5000e+02,8.9745e-05
5.6000e+02,8.9738e-05
5.7000e+02,8.9731e-05
5.8000e+02,8.9724e-05
5.9000e+02,8.9716e-05
6.0000e+02,8.9709e-05
6.1000e+02,8.9700e-05
6.2000e+02,8.9690e-05
6.3000e+02,8.9678e-05
6.4000e+02,8.9661e-05
6.5000e+02,8.9638e-05
6.6000e+02,8.9608e-05
6.7000e+02,8.9571e-05
6.8000e+02,8.9524e-05
6.9000e+02,8.9468e-05
7.0000e+02,8.9402e-05
7.1000e+02,8.9326e-05
7.2000e+02,8.9241e-05
7.3000e+02,8.9148e-05
7.4000e+02,8.9048e-05
7.5000e+02,8.8941e-05
7.6000e+02,8.8829e-05
7.7000e+02,8.8713e-05
7.8000e+02,8.8594e-05
7.9000e+02,8.8470e-05
8.0000e+02,8.8340e-05
8.1000e+02,8.8203e-05
8.2000e+02,8.8057e-05
8.3000e+02,8.7900e-05
8.4000e+02,8.7732e-05
8.5000e+02,8.7555e-05
8.6000e+02,8.7368e-05
8.7000e+02,8.7172e-05
8.8000e+02,8.6965e-05
8.9000e+02,8.6743e-05
9.0000e+02,8.6500e-05
9.1000e+02,8.6229e-05
9.2000e+02,8.5923e-05
9.3000e+02,8.5577e-05
9.4000e+02,8.5189e-05
9.5000e+02,8.4761e-05
9.6000e+02,8.4299e-05
9.7000e+02,8.3813e-05
9.8000e+02,8.3315e-05
9.9000e+02,8.2817e-05
1.0000e+03,8.2325e-05
1.0100e+03,8.1844e-05
1.0200e+03,8.1372e-05
1.0300e+03,8.0901e-05
1.0400e+03,8.0422e-05
1.0500e+03,7.9922e-05
1.0600e+03,7.9393e-05
1.0700e+03,7.8828e-05
1.0800e+03,7.8226e-05
1.0900e+03,7.7594e-05
1.1000e+03,7.6941e-05
1.1100e+03,7.6285e-05
1.1200e+03,7.5643e-05
1.1300e+03,7.5035e-05
1.1400e+03,7.4478e-05
1.1500e+03,7.3984e-05
1.1600e+03,7.3562e-05
1.1700e+03,7.3218e-05
1.1800e+03,7.2950e-05
1.1900e+03,7.2754e-05
1.2000e+03,7.2624e-05
1.2100e+03,7.2548e-05
1.2200e+03,7.2512e-05
1.2300e+03,7.2503e-05
1.2400e+03,7.2506e-05
1.2500e+03,7.2506e-05
1.2600e+03,7.2494e-05
1.2700e+03,7.2462e-05
1.2800e+03,7.2407e-05
1.2900e+03,7.2330e-05
1.3000e+03,7.2232e-05
1.3100e+03,7.2116e-05
1.3200e+03,7.1985e-05
1.3300e+03,7.1841e-05
1.3400e+03,7.1687e-05
1.3500e+03,7.1526e-05
1.3600e+03,7.1364e-05
1.3700e+03,7.1207e-05
1.3800e+03,7.1060e-05
1.3900e+03,7.0931e-05
1.4000e+03,7.0825e-05
1.4100e+03,7.0744e-05
1.4200e+03,7.0690e-05
1.4300e+03,7.0661e-05
1.4400e+03,7.0652e-05
1.4500e+03,7.0659e-05
1.4600e+03,7.0677e-05
1.4700e+03,7.0701e-05
1.4800e+03,7.0726e-05
1.4900e+03,7.0750e-05
1.5000e+03,7.0770e-05
1.5100e+03,7.0786e-05
1.5200e+03,7.0797e-05
1.5300e+03,7.0804e-05
1.5400e+03,7.0809e-05
1.5500e+03,7.0812e-05
1.5600e+03,7.0814e-05
1.5700e+03,7.0815e-05
1.5800e+03,7.0816e-05
1.5900e+03,7.0816e-05
1.6000e+03,7.0816e-05
1.6100e+03,7.0815e-05
1.6200e+03,7.0815e-05
1.6300e+03,7.0814e-05
1.6400e+03,7.0812e-05
1.6500e+03,7.0807e-05
1.6600e+03,7.0799e-05
1.6700e+03,7.0787e-05
1.6800e+03,7.0770e-05
1.6900e+03,7.0747e-05
1.7000e+03,7.0719e-05
1.7100e+03,7.0686e-05
1.7200e+03,7.0646e-05
1.7300e+03,7.0601e-05
1.7400e+03,7.0551e-05
1.7500e+03,7.0498e-05
1.7600e+03,7.0442e-05
1.7700e+03,7.0386e-05
1.7800e+03,7.0328e-05
1.7900e+03,7.0269e-05
1.8000e+03,7.0205e-05
1.8100e+03,7.0134e-05
1.8200e+03,7.0054e-05
1.8300e+03,6.9964e-05
1.8400e+03,6.9865e-05
1.8500e+03,6.9762e-05
1.8600e+03,6.9659e-05
1.8700e+03,6.9561e-05
1.8800e+03,6.9472e-05
1.8900e+03,6.9395e-05
1.9000e+03,6.9332e-05
1.9100e+03,6.9282e-05
1.9200e+03,6.9245e-05
1.9300e+03,6.9219e-05
1.9400e+03,6.9202e-05
1.9500e+03,6.9192e-05
1.9600e+03,6.9186e-05
1.9700e+03,6.9181e-05
1.9800e+03,6.9176e-05
1.9900e+03,6.9169e-05
2.0000e+03,6.9159e-05
2.0100e+03,6.9146e-05
2.0200e+03,6.9127e-05
2.0300e+03,6.9103e-05
2.0400e+03,6.9071e-05
2.0500e+03,6.9030e-05
2.0600e+03,6.8977e-05
2.0700e+03,6.8909e-05
2.0800e+03,6.8822e-05
2.0900e+03,6.8714e-05
2.1000e+03,6.8580e-05
2.1100e+03,6.8417e-05
2.1200e+03,6.8221e-05
2.1300e+03,6.7987e-05
2.1400e+03,6.7713e-05
2.1500e+03,6.7395e-05
2.1600e+03,6.7033e-05
2.1700e+03,6.6629e-05
2.1800e+03,6.6186e-05
2.1900e+03,6.5712e-05
2.2000e+03,6.5216e-05
2.2100e+03,6.4709e-05
2.2200e+03,6.4205e-05
2.2300e+03,6.3714e-05
2.2400e+03,6.3251e-05
2.2500e+03,6.2826e-05
2.2600e+03,6.2449e-05
2.2700e+03,6.2130e-05
2.2800e+03,6.1874e-05
2.2900e+03,6.1681e-05
2.3000e+03,6.1550e-05
2.3100e+03,6.1474e-05
2.3200e+03,6.1443e-05
2.3300e+03,6.1444e-05
2.3400e+03,6.1468e-05
2.3500e+03,6.1502e-05
2.3600e+03,6.1539e-05
2.3700e+03,6.1572e-05
2.3800e+03,6.1598e-05
2.3900e+03,6.1616e-05
2.4000e+03,6.1625e-05
2.4100e+03,6.1626e-05
2.4200e+03,6.1621e-05
2.4300e+03,6.1612e-05
2.4400e+03,6.1599e-05
2.4500e+03,6.1583e-05
2.4600e+03,6.1563e-05
2.4700e+03,6.1536e-05
2.4800e+03,6.1500e-05
2.4900e+03,6.1453e-05
2.5000e+03,6.1395e-05
2.5100e+03,6.1327e-05
2.5200e+03,6.1250e-05
2.5300e+03,6.1168e-05
2.5400e+03,6.1083e-05
2.5500e+03,6.0997e-05
2.5600e+03,6.0915e-05
2.5700e+03,6.0839e-05
2.5800e+03,6.0773e-05
2.5900e+03,6.0719e-05
2.6000e+03,6.0678e-05
2.6100e+03,6.0651e-05
2.6200e+03,6.0635e-05
2.6300e+03,6.0628e-05
2.6400e+03,6.0628e-05
2.6500e+03,6.0631e-05
2.6600e+03,6.0635e-05
2.6700e+03,6.0638e-05
2.6800e+03,6.0638e-05
2.6900e+03,6.0633e-05
2.7000e+03,6.0622e-05
2.7100e+03,6.0602e-05
2.7200e+03,6.0575e-05
2.7300e+03,6.0540e-05
2.7400e+03,6.0499e-05
2.7500e+03,6.0458e-05
2.7600e+03,6.0418e-05
2.7700e+03,6.0383e-05
2.7800e+03,6.0357e-05
2.7900e+03,6.0341e-05
2.8000e+03,6.0334e-05
2.8100e+03,6.0335e-05
2.8200e+03,6.0342e-05
2.8300e+03,6.0353e-05
2.8400e+03,6.0366e-05
2.8500e+03,6.0375e-05
2.8600e+03,6.0378e-05
2.8700e+03,6.0370e-05
2.8800e+03,6.0346e-05
2.8900e+03,6.0302e-05
2.9000e+03,6.0232e-05
2.9100e+03,6.0135e-05
2.9200e+03,6.0008e-05
2.9300e+03,5.9851e-05
2.9400e+03,5.9666e-05
2.9500e+03,5.9452e-05
2.9600e+03,5.9213e-05
2.9700e+03,5.8948e-05
2.9800e+03,5.8659e-05
2.9900e+03,5.8347e-05
3.0000e+03,5.8015e-05
3.0100e+03,5.7667e-05
3.0200e+03,5.7309e-05
3.0300e+03,5.6946e-05
3.0400e+03,5.6586e-05
3.0500e+03,5.6231e-05
3.0600e+03,5.5885e-05
3.0700e+03,5.5548e-05
3.0800e+03,5.5220e-05
3.0900e+03,5.4901e-05
3.1000e+03,5.4593e-05
3.1100e+03,5.4299e-05
3.1200e+03,5.4028e-05
3.1300e+03,5.3787e-05
3.1400e+03,5.3581e-05
3.1500e+03,5.3416e-05
3.1600e+03,5.3289e-05
3.1700e+03,5.3199e-05
3.1800e+03,5.3138e-05
3.1900e+03,5.3098e-05
3.2000e+03,5.3073e-05
3.2100e+03,5.3058e-05
3.2200e+03,5.3048e-05
3.2300e+03,5.3042e-05
3.2400e+03,5.3040e-05
3.2500e+03,5.3042e-05
3.2600e+03,5.3048e-05
3.2700e+03,5.3057e-05
3.2800e+03,5.3067e-05
3.2900e+03,5.3078e-05
3.3000e+03,5.3088e-05
3.3100e+03,5.3095e-05
3.3200e+03,5.3098e-05
3.3300e+03,5.3099e-05
3.3400e+03,5.3097e-05
3.3500e+03,5.3093e-05
3.3600e+03,5.3089e-05
3.3700e+03,5.3086e-05
3.3800e+03,5.3083e-05
3.3900e+03,5.3082e-05
3.4000e+03,5.3081e-05
3.4100e+03,5.3079e-05
3.4200e+03,5.3073e-05
3.4300e+03,5.3063e-05
3.4400e+03,5.3047e-05
3.4500e+03,5.3024e-05
3.4600e+03,5.2994e-05
3.4700e+03,5.2959e-05
3.4800e+03,5.2917e-05
3.4900e+03,5.2870e-05
3.5000e+03,5.2816e-05
3.5100e+03,5.2756e-05
3.5200e+03,5.2692e-05
3.5300e+03,5.2624e-05
3.5400e+03,5.2556e-05
3.5500e+03,5.2488e-05
3.5600e+03,5.2424e-05
3.5700e+03,5.2364e-05
3.5800e+03,5.2308e-05
3.5900e+03,5.2256e-05
3.6000e+03,5.2208e-05
3.6100e+03,5.2165e-05
3.6200e+03,5.2128e-05
3.6300e+03,5.2098e-05
3.6400e+03,5.2077e-05
3.6500e+03,5.2067e-05
3.6600e+03,5.2069e-05
3.6700e+03,5.2079e-05
3.6800e+03,5.2096e-05
3.6900e+03,5.2113e-05
3.7000e+03,5.2126e-05
3.7100e+03,5.2130e-05
3.7200e+03,5.2122e-05
3.7300e+03,5.2099e-05
3.7400e+03,5.2063e-05
3.7500e+03,5.2016e-05
3.7600e+03,5.1963e-05
3.7700e+03,5.1910e-05
3.7800e+03,5.1864e-05
3.7900e+03,5.1827e-05
3.8000e+03,5.1803e-05
3.8100e+03,5.1792e-05
3.8200e+03,5.1791e-05
3.8300e+03,5.1797e-05
3.8400e+03,5.1806e-05
3.8500e+03,5.1816e-05
3.8600e+03,5.1824e-05
3.8700e+03,5.1830e-05
3.8800e+03,5.1831e-05
3.8900e+03,5.1826e-05
3.9000e+03,5.1811e-05
3.9100e+03,5.1783e-05
3.9200e+03,5.1738e-05
3.9300e+03,5.1673e-05
3.9400e+03,5.1589e-05
3.9500e+03,5.1489e-05
3.9600e+03,5.1378e-05
3.9700e+03,5.1263e-05
3.9800e+03,5.1150e-05
3.9900e+03,5.1041e-05
4.0000e+03,5.0936e-05
4.0100e+03,5.0830e-05
4.0200e+03,5.0720e-05
4.0300e+03,5.0599e-05
4.0400e+03,5.0465e-05
4.0500e+03,5.0319e-05
4.0600e+03,5.0162e-05
4.0700e+03,5.0003e-05
4.0800e+03,4.9845e-05
4.0900e+03,4.9696e-05
4.1000e+03,4.9558e-05
4.1100e+03,4.9433e-05
4.1200e+03,4.9319e-05
4.1300e+03,4.9215e-05
4.1400e+03,4.9120e-05
4.1500e+03,4.9034e-05
4.1600e+03,4.8960e-05
4.1700e+03,4.8899e-05
4.1800e+03,4.8852e-05
4.1900e+03,4.8819e-05
4.2000e+03,4.8797e-05
4.2100e+03,4.8785e-05
4.2200e+03,4.8778e-05
4.2300e+03,4.8771e-05
4.2400e+03,4.8763e-05
4.2500e+03,4.8750e-05
4.2600e+03,4.8730e-05
4.2700e+03,4.8704e-05
4.2800e+03,4.8669e-05
4.2900e+03,4.8626e-05
4.3000e+03,4.8576e-05
4.3100e+03,4.8521e-05
4.3200e+03,4.8460e-05
4.3300e+03,4.8398e-05
4.3400e+03,4.8334e-05
4.3500e+03,4.8271e-05
4.3600e+03,4.8207e-05
4.3700e+03,4.8141e-05
4.3800e+03,4.8072e-05
4.3900e+03,4.7998e-05
4.4000e+03,4.7916e-05
4.4100e+03,4.7825e-05
4.4200e+03,4.7724e-05
4.4300e+03,4.7615e-05
4.4400e+03,4.7500e-05
4.4500e+03,4.7380e-05
4.4600e+03,4.7260e-05
4.4700e+03,4.7143e-05
4.4800e+03,4.7032e-05
4.4900e+03,4.6929e-05
4.5000e+03,4.6837e-05
4.5100e+03,4.6756e-05
4.5200e+03,4.6686e-05
4.5300e+03,4.6627e-05
4.5400e+03,4.6578e-05
4.5500e+03,4.6536e-05
4.5600e+03,4.6501e-05
4.5700e+03,4.6470e-05
4.5800e+03,4.6443e-05
4.5900e+03,4.6419e-05
4.6000e+03,4.6398e-05
4.6100e+03,4.6380e-05
4.6200e+03,4.6364e-05
4.6300e+03,4.6350e-05
4.6400e+03,4.6336e-05
4.6500e+03,4.6321e-05
4.6600e+03,4.6304e-05
4.6700e+03,4.6284e-05
4.6800e+03,4.6263e-05
4.6900e+03,4.6241e-05
4.7000e+03,4.6219e-05
4.7100e+03,4.6199e-05
4.7200e+03,4.6182e-05
4.7300e+03,4.6169e-05
4.7400e+03,4.6160e-05
4.7500e+03,4.6153e-05
4.7600e+03,4.6147e-05
4.7700e+03,4.6137e-05
4.7800e+03,4.6123e-05
4.7900e+03,4.6100e-05
4.8000e+03,4.6068e-05
4.8100e+03,4.6025e-05
4.8200e+03,4.5974e-05
4.8300e+03,4.5914e-05
4.8400e+03,4.5847e-05
4.8500e+03,4.5776e-05
4.8600e+03,4.5701e-05
4.8700e+03,4.5623e-05
4.8800e+03,4.5542e-05
4.8900e+03,4.5459e-05
4.9000e+03,4.5373e-05
4.9100e+03,4.5285e-05
4.9200e+03,4.5196e-05
4.9300e+03,4.5106e-05
4.9400e+03,4.5017e-05
4.9500e+03,4.4931e-05
4.9600e+03,4.4848e-05
4.9700e+03,4.4770e-05
4.9800e+03,4.4699e-05
4.9900e+03,4.4641e-05
5.0000e+03,4.4598e-05
5.0100e+03,4.4575e-05
5.0200e+03,4.4578e-05
5.0300e+03,4.4609e-05
5.0400e+03,4.4669e-05
5.0500e+03,4.4757e-05
5.0600e+03,4.4869e-05
5.0700e+03,4.4999e-05
5.0800e+03,4.5138e-05
5.0900e+03,4.5274e-05
5.1000e+03,4.5393e-05
5.1100e+03,4.5478e-05
5.1200e+03,4.5516e-05
5.1300e+03,4.5494e-05
5.1400e+03,4.5403e-05
5.1500e+03,4.5237e-05
5.1600e+03,4.4996e-05
5.1700e+03,4.4684e-05
5.1800e+03,4.4309e-05
5.1900e+03,4.3884e-05
5.2000e+03,4.3425e-05
5.2100e+03,4.2948e-05
5.2200e+03,4.2471e-05
5.2300e+03,4.2008e-05
5.2400e+03,4.1574e-05
5.2500e+03,4.1177e-05
5.2600e+03,4.0824e-05
5.2700e+03,4.0518e-05
5.2800e+03,4.0256e-05
5.2900e+03,4.0036e-05
5.3000e+03,3.9848e-05
5.3100e+03,3.9685e-05
5.3200e+03,3.9537e-05
5.3300e+03,3.9399e-05
5.3400e+03,3.9269e-05
5.3500e+03,3.9148e-05
5.3600e+03,3.9044e-05
5.3700e+03,3.8965e-05
5.3800e+03,3.8920e-05
5.3900e+03,3.8917e-05
5.4000e+03,3.8960e-05
5.4100e+03,3.9048e-05
5.4200e+03,3.9178e-05
5.4300e+03,3.9341e-05
5.4400e+03,3.9525e-05
5.4500e+03,3.9718e-05
5.4600e+03,3.9905e-05
5.4700e+03,4.0074e-05
5.4800e+03,4.0213e-05
5.4900e+03,4.0315e-05
5.5000e+03,4.0375e-05
5.5100e+03,4.0393e-05
5.5200e+03,4.0371e-05
5.5300e+03,4.0312e-05
5.5400e+03,4.0222e-05
5.5500e+03,4.0105e-05
5.5600e+03,3.9966e-05
5.5700e+03,3.9813e-05
5.5800e+03,3.9652e-05
5.5900e+03,3.9492e-05
5.6000e+03,3.9338e-05
5.6100e+03,3.9197e-05
5.6200e+03,3.9071e-05
5.6300e+03,3.8962e-05
5.6400e+03,3.8869e-05
5.6500e+03,3.8790e-05
5.6600e+03,3.8722e-05
5.6700e+03,3.8662e-05
5.6800e+03,3.8608e-05
5.6900e+03,3.8557e-05
5.7000e+03,3.8507e-05
5.7100e+03,3.8458e-05
5.7200e+03,3.8410e-05
5.7300e+03,3.8367e-05
5.7400e+03,3.8330e-05
5.7500e+03,3.8303e-05
5.7600e+03,3.8291e-05
5.7700e+03,3.8297e-05
5.7800e+03,3.8322e-05
5.7900e+03,3.8368e-05
5.8000e+03,3.8433e-05
5.8100e+03,3.8516e-05
5.8200e+03,3.8612e-05
5.8300e+03,3.8717e-05
5.8400e+03,3.8829e-05
5.8500e+03,3.8944e-05
5.8600e+03,3.9059e-05
5.8700e+03,3.9172e-05
5.8800e+03,3.9282e-05
5.8900e+03,3.9387e-05
5.9000e+03,3.9486e-05
5.9100e+03,3.9579e-05
5.9200e+03,3.9665e-05
5.9300e+03,3.9742e-05
5.9400e+03,3.9807e-05
5.9500e+03,3.9856e-05
5.9600e+03,3.9888e-05
5.9700e+03,3.9899e-05
5.9800e+03,3.9888e-05
5.9900e+03,3.9854e-05
6.0000e+03,3.9797e-05
6.0100e+03,3.9718e-05
6.0200e+03,3.9620e-05
6.0300e+03,3.9505e-05
6.0400e+03,3.9376e-05
6.0500e+03,3.9238e-05
6.0600e+03,3.9093e-05
6.0700e+03,3.8949e-05
6.0800e+03,3.8808e-05
6.0900e+03,3.8678e-05
6.1000e+03,3.8561e-05
6.1100e+03,3.8462e-05
6.1200e+03,3.8383e-05
6.1300e+03,3.8326e-05
6.1400e+03,3.8291e-05
6.1500e+03,3.8276e-05
6.1600e+03,3.8280e-05
6.1700e+03,3.8301e-05
6.1800e+03,3.8337e-05
6.1900e+03,3.8386e-05
6.2000e+03,3.8449e-05
6.2100e+03,3.8524e-05
6.2200e+03,3.8612e-05
6.2300e+03,3.8712e-05
6.2400e+03,3.8821e-05
6.2500e+03,3.8939e-05
6.2600e+03,3.9062e-05
6.2700e+03,3.9189e-05
6.2800e+03,3.9319e-05
6.2900e+03,3.9448e-05
6.3000e+03,3.9575e-05
6.3100e+03,3.9700e-05
6.3200e+03,3.9819e-05
6.3300e+03,3.9933e-05
6.3400e+03,4.0041e-05
6.3500e+03,4.0141e-05
6.3600e+03,4.0232e-05
6.3700e+03,4.0311e-05
6.3800e+03,4.0376e-05
6.3900e+03,4.0425e-05
6.4000e+03,4.0456e-05
6.4100e+03,4.0471e-05
6.4200e+03,4.0471e-05
6.4300e+03,4.0458e-05
6.4400e+03,4.0437e-05
6.4500e+03,4.0411e-05
6.4600e+03,4.0384e-05
6.4700e+03,4.0359e-05
6.4800e+03,4.0338e-05
6.4900e+03,4.0324e-05
6.5000e+03,4.0317e-05
6.5100e+03,4.0317e-05
6.5200e+03,4.0322e-05
6.5300e+03,4.0330e-05
6.5400e+03,4.0338e-05
6.5500e+03,4.0340e-05
6.5600e+03,4.0336e-05
6.5700e+03,4.0323e-05
6.5800e+03,4.0299e-05
6.5900e+03,4.0265e-05
6.6000e+03,4.0222e-05
6.6100e+03,4.0172e-05
6.6200e+03,4.0117e-05
6.6300e+03,4.0061e-05
6.6400e+03,4.0006e-05
6.6500e+03,3.9957e-05
6.6600e+03,3.9914e-05
6.6700e+03,3.9880e-05
6.6800e+03,3.9852e-05
6.6900e+03,3.9830e-05
6.7000e+03,3.9809e-05
6.7100e+03,3.9786e-05
6.7200e+03,3.9757e-05
6.7300e+03,3.9720e-05
6.7400e+03,3.9673e-05
6.7500e+03,3.9614e-05
6.7600e+03,3.9546e-05
6.7700e+03,3.9472e-05
6.7800e+03,3.9397e-05
6.7900e+03,3.9327e-05
6.8000e+03,3.9266e-05
6.8100e+03,3.9217e-05
6.8200e+03,3.9177e-05
6.8300e+03,3.9146e-05
6.8400e+03,3.9117e-05
6.8500e+03,3.9088e-05
6.8600e+03,3.9054e-05
6.8700e+03,3.9014e-05
6.8800e+03,3.8966e-05
6.8900e+03,3.8908e-05
6.9000e+03,3.8840e-05
6.9100e+03,3.8758e-05
6.9200e+03,3.8660e-05
6.9300e+03,3.8544e-05
6.9400e+03,3.8408e-05
6.9500e+03,3.8253e-05
6.9600e+03,3.8078e-05
6.9700e+03,3.7885e-05
6.9800e+03,3.7677e-05
6.9900e+03,3.7457e-05
7.0000e+03,3.7230e-05
7.0100e+03,3.6998e-05
7.0200e+03,3.6766e-05
7.0300e+03,3.6539e-05
7.0400e+03,3.6318e-05
7.0500e+03,3.6108e-05
7.0600e+03,3.5909e-05
7.0700e+03,3.5723e-05
7.0800e+03,3.5554e-05
7.0900e+03,3.5403e-05
7.1000e+03,3.5274e-05
7.1100e+03,3.5173e-05
7.1200e+03,3.5103e-05
7.1300e+03,3.5069e-05
7.1400e+03,3.5073e-05
7.1500e+03,3.5114e-05
7.1600e+03,3.5189e-05
7.1700e+03,3.5290e-05
7.1800e+03,3.5412e-05
7.1900e+03,3.5550e-05
7.2000e+03,3.5701e-05
7.2100e+03,3.5868e-05
7.2200e+03,3.6054e-05
7.2300e+03,3.6261e-05
7.2400e+03,3.6490e-05
7.2500e+03,3.6740e-05
7.2600e+03,3.7004e-05
7.2700e+03,3.7276e-05
7.2800e+03,3.7549e-05
7.2900e+03,3.7821e-05
7.3000e+03,3.8087e-05
7.3100e+03,3.8348e-05
7.3200e+03,3.8604e-05
7.3300e+03,3.8854e-05
7.3400e+03,3.9097e-05
7.3500e+03,3.9329e-05
7.3600e+03,3.9548e-05
7.3700e+03,3.9752e-05
7.3800e+03,3.9938e-05
7.3900e+03,4.0107e-05
7.4000e+03,4.0258e-05
7.4100e+03,4.0392e-05
7.4200e+03,4.0508e-05
7.4300e+03,4.0605e-05
7.4400e+03,4.0681e-05
7.4500e+03,4.0731e-05
7.4600e+03,4.0753e-05
7.4700e+03,4.0743e-05
7.4800e+03,4.0700e-05
7.4900e+03,4.0623e-05
7.5000e+03,4.0511e-05
7.5100e+03,4.0365e-05
7.5200e+03,4.0187e-05
7.5300e+03,3.9978e-05
7.5400e+03,3.9744e-05
7.5500e+03,3.9489e-05
7.5600e+03,3.9219e-05
7.5700e+03,3.8940e-05
7.5800e+03,3.8657e-05
7.5900e+03,3.8377e-05
7.6000e+03,3.8101e-05
7.6100e+03,3.7832e-05
7.6200e+03,3.7571e-05
7.6300e+03,3.7316e-05
7.6400e+03,3.7068e-05
7.6500e+03,3.6828e-05
7.6600e+03,3.6599e-05
7.6700e+03,3.6383e-05
7.6800e+03,3.6184e-05
7.6900e+03,3.6006e-05
7.7000e+03,3.5851e-05
7.7100e+03,3.5719e-05
7.7200e+03,3.5609e-05
7.7300e+03,3.5519e-05
7.7400e+03,3.5442e-05
7.7500e+03,3.5373e-05
7.7600e+03,3.5305e-05
7.7700e+03,3.5233e-05
7.7800e+03,3.5151e-05
7.7900e+03,3.5060e-05
7.8000e+03,3.4960e-05
7.8100e+03,3.4855e-05
7.8200e+03,3.4749e-05
7.8300e+03,3.4645e-05
7.8400e+03,3.4545e-05
7.8500e+03,3.4450e-05
7.8600e+03,3.4356e-05
7.8700e+03,3.4264e-05
7.8800e+03,3.4171e-05
7.8900e+03,3.4074e-05
7.9000e+03,3.3974e-05
7.9100e+03,3.3871e-05
7.9200e+03,3.3765e-05
7.9300e+03,3.3657e-05
7.9400e+03,3.3547e-05
7.9500e+03,3.3435e-05
7.9600e+03,3.3323e-05
7.9700e+03,3.3211e-05
7.9800e+03,3.3101e-05
7.9900e+03,3.2993e-05
8.0000e+03,3.2891e-05
8.0100e+03,3.2794e-05
8.0200e+03,3.2701e-05
8.0300e+03,3.2611e-05
8.0400e+03,3.2523e-05
8.0500e+03,3.2434e-05
8.0600e+03,3.2340e-05
8.0700e+03,3.2240e-05
8.0800e+03,3.2131e-05
8.0900e+03,3.2011e-05
8.1000e+03,3.1879e-05
8.1100e+03,3.1733e-05
8.1200e+03,3.1576e-05
8.1300e+03,3.1409e-05
8.1400e+03,3.1235e-05
8.1500e+03,3.1058e-05
8.1600e+03,3.0883e-05
8.1700e+03,3.0711e-05
8.1800e+03,3.0543e-05
8.1900e+03,3.0381e-05
8.2000e+03,3.0222e-05
8.2100e+03,3.0067e-05
8.2200e+03,2.9915e-05
8.2300e+03,2.9770e-05
8.2400e+03,2.9632e-05
8.2500e+03,2.9506e-05
8.2600e+03,2.9395e-05
8.2700e+03,2.9301e-05
8.2800e+03,2.9227e-05
8.2900e+03,2.9176e-05
8.3000e+03,2.9148e-05
8.3100e+03,2.9143e-05
8.3200e+03,2.9160e-05
8.3300e+03,2.9196e-05
8.3400e+03,2.9245e-05
8.3500e+03,2.9303e-05
8.3600e+03,2.9362e-05
8.3700e+03,2.9418e-05
8.3800e+03,2.9465e-05
8.3900e+03,2.9501e-05
8.4000e+03,2.9524e-05
8.4100e+03,2.9535e-05
8.4200e+03,2.9534e-05
8.4300e+03,2.9524e-05
8.4400e+03,2.9506e-05
8.4500e+03,2.9480e-05
8.4600e+03,2.9448e-05
8.4700e+03,2.9411e-05
8.4800e+03,2.9372e-05
8.4900e+03,2.9332e-05
8.5000e+03,2.9292e-05
8.5100e+03,2.9254e-05
8.5200e+03,2.9217e-05
8.5300e+03,2.9181e-05
8.5400e+03,2.9145e-05
8.5500e+03,2.9110e-05
8.5600e+03,2.9073e-05
8.5700e+03,2.9034e-05
8.5800e+03,2.8992e-05
8.5900e+03,2.8947e-05
8.6000e+03,2.8898e-05
8.6100e+03,2.8846e-05
8.6200e+03,2.8792e-05
8.6300e+03,2.8739e-05
8.6400e+03,2.8691e-05
8.6500e+03,2.8650e-05
8.6600e+03,2.8622e-05
8.6700e+03,2.8609e-05
8.6800e+03,2.8611e-05
8.6900e+03,2.8627e-05
8.7000e+03,2.8655e-05
8.7100e+03,2.8690e-05
8.7200e+03,2.8728e-05
8.7300e+03,2.8764e-05
8.7400e+03,2.8795e-05
8.7500e+03,2.8819e-05
8.7600e+03,2.8836e-05
8.7700e+03,2.8843e-05
8.7800e+03,2.8840e-05
8.7900e+03,2.8827e-05
8.8000e+03,2.8800e-05
8.8100e+03,2.8757e-05
8.8200e+03,2.8697e-05
8.8300e+03,2.8617e-05
8.8400e+03,2.8515e-05
8.8500e+03,2.8394e-05
8.8600e+03,2.8254e-05
8.8700e+03,2.8101e-05
8.8800e+03,2.7942e-05
8.8900e+03,2.7783e-05
8.9000e+03,2.7631e-05
8.9100e+03,2.7493e-05
8.9200e+03,2.7371e-05
8.9300e+03,2.7269e-05
8.9400e+03,2.7187e-05
8.9500e+03,2.7122e-05
8.9600e+03,2.7073e-05
8.9700e+03,2.7037e-05
8.9800e+03,2.7012e-05
8.9900e+03,2.6999e-05
9.0000e+03,2.6998e-05
9.0100e+03,2.7011e-05
9.0200e+03,2.7039e-05
9.0300e+03,2.7090e-05
9.0400e+03,2.7170e-05
9.0500e+03,2.7287e-05
9.0600e+03,2.7450e-05
9.0700e+03,2.7668e-05
