# Time , Side-Flux
0.0000e+00,0.0000e+00
1.0000e+01,1.7457e-09
2.0000e+01,3.4905e-09
3.0000e+01,5.2331e-09
4.0000e+01,6.9727e-09
5.0000e+01,8.7082e-09
6.0000e+01,1.0439e-08
7.0000e+01,1.2163e-08
8.0000e+01,1.3880e-08
9.0000e+01,1.5589e-08
1.0000e+02,1.7290e-08
1.1000e+02,1.8980e-08
1.2000e+02,2.0660e-08
1.3000e+02,2.2329e-08
1.4000e+02,2.3985e-08
1.5000e+02,2.5628e-08
1.6000e+02,2.7257e-08
1.7000e+02,2.8871e-08
1.8000e+02,3.0471e-08
1.9000e+02,3.2054e-08
2.0000e+02,3.3621e-08
2.1000e+02,3.5171e-08
2.2000e+02,3.6704e-08
2.3000e+02,3.8218e-08
2.4000e+02,3.9714e-08
2.5000e+02,4.1192e-08
2.6000e+02,4.2650e-08
2.7000e+02,4.4088e-08
2.8000e+02,4.5507e-08
2.9000e+02,4.6906e-08
3.0000e+02,4.8285e-08
3.1000e+02,4.9644e-08
3.2000e+02,5.0981e-08
3.3000e+02,5.2299e-08
3.4000e+02,5.3596e-08
3.5000e+02,5.4872e-08
3.6000e+02,5.6127e-08
3.7000e+02,5.7362e-08
3.8000e+02,5.8576e-08
3.9000e+02,5.9770e-08
4.0000e+02,6.0943e-08
4.1000e+02,6.2096e-08
4.2000e+02,6.3229e-08
4.3000e+02,6.4342e-08
4.4000e+02,6.5435e-08
4.5000e+02,6.6508e-08
4.6000e+02,6.7562e-08
4.7000e+02,6.8597e-08
4.8000e+02,6.9613e-08
4.9000e+02,7.0610e-08
5.0000e+02,7.1589e-08
5.1000e+02,7.2549e-08
5.2000e+02,7.3492e-08
5.3000e+02,7.4417e-08
5.4000e+02,7.5325e-08
5.5000e+02,7.6215e-08
5.6000e+02,7.7089e-08
5.7000e+02,7.7947e-08
5.8000e+02,7.8788e-08
5.9000e+02,7.9613e-08
6.0000e+02,8.0423e-08
6.1000e+02,8.1218e-08
6.2000e+02,8.1997e-08
6.3000e+02,8.2762e-08
6.4000e+02,8.3512e-08
6.5000e+02,8.4249e-08
6.6000e+02,8.4971e-08
6.7000e+02,8.5680e-08
6.8000e+02,8.6376e-08
6.9000e+02,8.7058e-08
7.0000e+02,8.7728e-08
7.1000e+02,8.8386e-08
7.2000e+02,8.9031e-08
7.3000e+02,8.9664e-08
7.4000e+02,9.0286e-08
7.5000e+02,9.0896e-08
7.6000e+02,9.1495e-08
7.7000e+02,9.2082e-08
7.8000e+02,9.2659e-08
7.9000e+02,9.3226e-08
8.0000e+02,9.3782e-08
8.1000e+02,9.4328e-08
8.2000e+02,9.4864e-08
8.3000e+02,9.5390e-08
8.4000e+02,9.5907e-08
8.5000e+02,9.6414e-08
8.6000e+02,9.6913e-08
8.7000e+02,9.7402e-08
8.8000e+02,9.7882e-08
8.9000e+02,9.8354e-08
9.0000e+02,9.8817e-08
9.1000e+02,9.9271e-08
9.2000e+02,9.9718e-08
9.3000e+02,1.0016e-07
9.4000e+02,1.0059e-07
9.5000e+02,1.0101e-07
9.6000e+02,1.0142e-07
9.7000e+02,1.0183e-07
9.8000e+02,1.0223e-07
9.9000e+02,1.0262e-07
1.0000e+03,1.0300e-07
1.0100e+03,1.0338e-07
1.0200e+03,1.0375e-07
1.0300e+03,1.0411e-07
1.0400e+03,1.0447e-07
1.0500e+03,1.0481e-07
1.0600e+03,1.0515e-07
1.0700e+03,1.0549e-07
1.0800e+03,1.0581e-07
1.0900e+03,1.0613e-07
1.1000e+03,1.0644e-07
1.1100e+03,1.0675e-07
1.1200e+03,1.0705e-07
1.1300e+03,1.0734e-07
1.1400e+03,1.0762e-07
1.1500e+03,1.0790e-07
1.1600e+03,1.0817e-07
1.1700e+03,1.0843e-07
1.1800e+03,1.0869e-07
1.1900e+03,1.0894e-07
1.2000e+03,1.0918e-07
1.2100e+03,1.0941e-07
1.2200e+03,1.0964e-07
1.2300e+03,1.0986e-07
1.2400e+03,1.1007e-07
1.2500e+03,1.1028e-07
1.2600e+03,1.1048e-07
1.2700e+03,1.1067e-07
1.2800e+03,1.1086e-07
1.2900e+03,1.1103e-07
1.3000e+03,1.1120e-07
1.3100e+03,1.1137e-07
1.3200e+03,1.1153e-07
1.3300e+03,1.1168e-07
1.3400e+03,1.1182e-07
1.3500e+03,1.1196e-07
1.3600e+03,1.1209e-07
1.3700e+03,1.1221e-07
1.3800e+03,1.1232e-07
1.3900e+03,1.1243e-07
1.4000e+03,1.1254e-07
1.4100e+03,1.1264e-07
1.4200e+03,1.1273e-07
1.4300e+03,1.1281e-07
1.4400e+03,1.1289e-07
1.4500e+03,1.1296e-07
1.4600e+03,1.1303e-07
1.4700e+03,1.1309e-07
1.4800e+03,1.1315e-07
1.4900e+03,1.1320e-07
1.5000e+03,1.1324e-07
1.5100e+03,1.1328e-07
1.5200e+03,1.1332e-07
1.5300e+03,1.1335e-07
1.5400e+03,1.1338e-07
1.5500e+03,1.1340e-07
1.5600e+03,1.1342e-07
1.5700e+03,1.1344e-07
1.5800e+03,1.1345e-07
1.5900e+03,1.1346e-07
1.6000e+03,1.1346e-07
1.6100e+03,1.1346e-07
1.6200e+03,1.1346e-07
1.6300e+03,1.1346e-07
1.6400e+03,1.1345e-07
1.6500e+03,1.1344e-07
1.6600e+03,1.1343e-07
1.6700e+03,1.1342e-07
1.6800e+03,1.1341e-07
1.6900e+03,1.1339e-07
1.7000e+03,1.1338e-07
1.7100e+03,1.1336e-07
1.7200e+03,1.1335e-07
1.7300e+03,1.1333e-07
1.7400e+03,1.1331e-07
1.7500e+03,1.1330e-07
1.7600e+03,1.1328e-07
1.7700e+03,1.1326e-07
1.7800e+03,1.1325e-07
1.7900e+03,1.1323e-07
1.8000e+03,1.1322e-07
1.8100e+03,1.1321e-07
1.8200e+03,1.1320e-07
1.8300e+03,1.1319e-07
1.8400e+03,1.1318e-07
1.8500e+03,1.1317e-07
1.8600e+03,1.1317e-07
1.8700e+03,1.1317e-07
1.8800e+03,1.1317e-07
1.8900e+03,1.1317e-07
1.9000e+03,1.1318e-07
1.9100e+03,1.1319e-07
1.9200e+03,1.1320e-07
1.9300e+03,1.1322e-07
1.9400e+03,1.1323e-07
1.9500e+03,1.1326e-07
1.9600e+03,1.1328e-07
1.9700e+03,1.1331e-07
1.9800e+03,1.1334e-07
1.9900e+03,1.1338e-07
2.0000e+03,1.1342e-07
2.0100e+03,1.1346e-07
2.0200e+03,1.1351e-07
2.0300e+03,1.1356e-07
2.0400e+03,1.1361e-07
2.0500e+03,1.1367e-07
2.0600e+03,1.1373e-07
2.0700e+03,1.1380e-07
2.0800e+03,1.1387e-07
2.0900e+03,1.1394e-07
2.1000e+03,1.1402e-07
2.1100e+03,1.1410e-07
2.1200e+03,1.1419e-07
2.1300e+03,1.1428e-07
2.1400e+03,1.1437e-07
2.1500e+03,1.1447e-07
2.1600e+03,1.1457e-07
2.1700e+03,1.1468e-07
2.1800e+03,1.1479e-07
2.1900e+03,1.1490e-07
2.2000e+03,1.1502e-07
2.2100e+03,1.1514e-07
2.2200e+03,1.1526e-07
2.2300e+03,1.1539e-07
2.2400e+03,1.1552e-07
2.2500e+03,1.1565e-07
2.2600e+03,1.1579e-07
2.2700e+03,1.1593e-07
2.2800e+03,1.1607e-07
2.2900e+03,1.1622e-07
2.3000e+03,1.1637e-07
2.3100e+03,1.1652e-07
2.3200e+03,1.1667e-07
2.3300e+03,1.1683e-07
2.3400e+03,1.1699e-07
2.3500e+03,1.1715e-07
2.3600e+03,1.1731e-07
2.3700e+03,1.1748e-07
2.3800e+03,1.1765e-07
2.3900e+03,1.1781e-07
2.4000e+03,1.1798e-07
2.4100e+03,1.1816e-07
2.4200e+03,1.1833e-07
2.4300e+03,1.1850e-07
2.4400e+03,1.1868e-07
2.4500e+03,1.1886e-07
2.4600e+03,1.1904e-07
2.4700e+03,1.1922e-07
2.4800e+03,1.1940e-07
2.4900e+03,1.1958e-07
2.5000e+03,1.1976e-07
2.5100e+03,1.1994e-07
2.5200e+03,1.2012e-07
2.5300e+03,1.2031e-07
2.5400e+03,1.2049e-07
2.5500e+03,1.2068e-07
2.5600e+03,1.2086e-07
2.5700e+03,1.2105e-07
2.5800e+03,1.2123e-07
2.5900e+03,1.2142e-07
2.6000e+03,1.2160e-07
2.6100e+03,1.2179e-07
2.6200e+03,1.2197e-07
2.6300e+03,1.2216e-07
2.6400e+03,1.2235e-07
2.6500e+03,1.2253e-07
2.6600e+03,1.2272e-07
2.6700e+03,1.2290e-07
2.6800e+03,1.2309e-07
2.6900e+03,1.2327e-07
2.7000e+03,1.2346e-07
2.7100e+03,1.2364e-07
2.7200e+03,1.2383e-07
2.7300e+03,1.2402e-07
2.7400e+03,1.2420e-07
2.7500e+03,1.2439e-07
2.7600e+03,1.2457e-07
2.7700e+03,1.2475e-07
2.7800e+03,1.2494e-07
2.7900e+03,1.2512e-07
2.8000e+03,1.2531e-07
2.8100e+03,1.2549e-07
2.8200e+03,1.2568e-07
2.8300e+03,1.2586e-07
2.8400e+03,1.2605e-07
2.8500e+03,1.2623e-07
2.8600e+03,1.2641e-07
2.8700e+03,1.2660e-07
2.8800e+03,1.2678e-07
2.8900e+03,1.2696e-07
2.9000e+03,1.2715e-07
2.9100e+03,1.2733e-07
2.9200e+03,1.2751e-07
2.9300e+03,1.2770e-07
2.9400e+03,1.2788e-07
2.9500e+03,1.2806e-07
2.9600e+03,1.2824e-07
2.9700e+03,1.2842e-07
2.9800e+03,1.2860e-07
2.9900e+03,1.2878e-07
3.0000e+03,1.2896e-07
3.0100e+03,1.2914e-07
3.0200e+03,1.2932e-07
3.0300e+03,1.2950e-07
3.0400e+03,1.2968e-07
3.0500e+03,1.2986e-07
3.0600e+03,1.3003e-07
3.0700e+03,1.3021e-07
3.0800e+03,1.3038e-07
3.0900e+03,1.3056e-07
3.1000e+03,1.3073e-07
3.1100e+03,1.3090e-07
3.1200e+03,1.3107e-07
3.1300e+03,1.3124e-07
3.1400e+03,1.3141e-07
3.1500e+03,1.3158e-07
3.1600e+03,1.3174e-07
3.1700e+03,1.3191e-07
3.1800e+03,1.3207e-07
3.1900e+03,1.3223e-07
3.2000e+03,1.3239e-07
3.2100e+03,1.3255e-07
3.2200e+03,1.3270e-07
3.2300e+03,1.3286e-07
3.2400e+03,1.3301e-07
3.2500e+03,1.3316e-07
3.2600e+03,1.3331e-07
3.2700e+03,1.3345e-07
3.2800e+03,1.3360e-07
3.2900e+03,1.3374e-07
3.3000e+03,1.3388e-07
3.3100e+03,1.3402e-07
3.3200e+03,1.3415e-07
3.3300e+03,1.3428e-07
3.3400e+03,1.3441e-07
3.3500e+03,1.3454e-07
3.3600e+03,1.3467e-07
3.3700e+03,1.3479e-07
3.3800e+03,1.3491e-07
3.3900e+03,1.3503e-07
3.4000e+03,1.3514e-07
3.4100e+03,1.3525e-07
3.4200e+03,1.3536e-07
3.4300e+03,1.3547e-07
3.4400e+03,1.3557e-07
3.4500e+03,1.3567e-07
3.4600e+03,1.3577e-07
3.4700e+03,1.3586e-07
3.4800e+03,1.3596e-07
3.4900e+03,1.3604e-07
3.5000e+03,1.3613e-07
3.5100e+03,1.3621e-07
3.5200e+03,1.3629e-07
3.5300e+03,1.3637e-07
3.5400e+03,1.3645e-07
3.5500e+03,1.3652e-07
3.5600e+03,1.3659e-07
3.5700e+03,1.3665e-07
3.5800e+03,1.3672e-07
3.5900e+03,1.3678e-07
3.6000e+03,1.3683e-07
3.6100e+03,1.3689e-07
3.6200e+03,1.3694e-07
3.6300e+03,1.3699e-07
3.6400e+03,1.3704e-07
3.6500e+03,1.3708e-07
3.6600e+03,1.3712e-07
3.6700e+03,1.3716e-07
3.6800e+03,1.3720e-07
3.6900e+03,1.3723e-07
3.7000e+03,1.3727e-07
3.7100e+03,1.3730e-07
3.7200e+03,1.3732e-07
3.7300e+03,1.3735e-07
3.7400e+03,1.3737e-07
3.7500e+03,1.3739e-07
3.7600e+03,1.3741e-07
3.7700e+03,1.3743e-07
3.7800e+03,1.3745e-07
3.7900e+03,1.3746e-07
3.8000e+03,1.3747e-07
3.8100e+03,1.3748e-07
3.8200e+03,1.3749e-07
3.8300e+03,1.3750e-07
3.8400e+03,1.3751e-07
3.8500e+03,1.3751e-07
3.8600e+03,1.3752e-07
3.8700e+03,1.3752e-07
3.8800e+03,1.3752e-07
3.8900e+03,1.3752e-07
3.9000e+03,1.3752e-07
3.9100e+03,1.3752e-07
3.9200e+03,1.3752e-07
3.9300e+03,1.3751e-07
3.9400e+03,1.3751e-07
3.9500e+03,1.3751e-07
3.9600e+03,1.3750e-07
3.9700e+03,1.3750e-07
3.9800e+03,1.3749e-07
3.9900e+03,1.3749e-07
4.0000e+03,1.3748e-07
4.0100e+03,1.3747e-07
4.0200e+03,1.3747e-07
4.0300e+03,1.3746e-07
4.0400e+03,1.3746e-07
4.0500e+03,1.3745e-07
4.0600e+03,1.3744e-07
4.0700e+03,1.3744e-07
4.0800e+03,1.3743e-07
4.0900e+03,1.3742e-07
4.1000e+03,1.3742e-07
4.1100e+03,1.3741e-07
4.1200e+03,1.3741e-07
4.1300e+03,1.3740e-07
4.1400e+03,1.3740e-07
4.1500e+03,1.3739e-07
4.1600e+03,1.3739e-07
4.1700e+03,1.3739e-07
4.1800e+03,1.3738e-07
4.1900e+03,1.3738e-07
4.2000e+03,1.3738e-07
4.2100e+03,1.3737e-07
4.2200e+03,1.3737e-07
4.2300e+03,1.3737e-07
4.2400e+03,1.3737e-07
4.2500e+03,1.3737e-07
4.2600e+03,1.3737e-07
4.2700e+03,1.3737e-07
4.2800e+03,1.3737e-07
4.2900e+03,1.3738e-07
4.3000e+03,1.3738e-07
4.3100e+03,1.3738e-07
4.3200e+03,1.3738e-07
4.3300e+03,1.3739e-07
4.3400e+03,1.3739e-07
4.3500e+03,1.3740e-07
4.3600e+03,1.3740e-07
4.3700e+03,1.3741e-07
4.3800e+03,1.3741e-07
4.3900e+03,1.3742e-07
4.4000e+03,1.3743e-07
4.4100e+03,1.3744e-07
4.4200e+03,1.3744e-07
4.4300e+03,1.3745e-07
4.4400e+03,1.3746e-07
4.4500e+03,1.3747e-07
4.4600e+03,1.3748e-07
4.4700e+03,1.3749e-07
4.4800e+03,1.3750e-07
4.4900e+03,1.3751e-07
4.5000e+03,1.3752e-07
4.5100e+03,1.3754e-07
4.5200e+03,1.3755e-07
4.5300e+03,1.3756e-07
4.5400e+03,1.3757e-07
4.5500e+03,1.3759e-07
4.5600e+03,1.3760e-07
4.5700e+03,1.3762e-07
4.5800e+03,1.3763e-07
4.5900e+03,1.3765e-07
4.6000e+03,1.3766e-07
4.6100e+03,1.3768e-07
4.6200e+03,1.3769e-07
4.6300e+03,1.3771e-07
4.6400e+03,1.3773e-07
4.6500e+03,1.3774e-07
4.6600e+03,1.3776e-07
4.6700e+03,1.3778e-07
4.6800e+03,1.3780e-07
4.6900e+03,1.3782e-07
4.7000e+03,1.3784e-07
4.7100e+03,1.3786e-07
4.7200e+03,1.3788e-07
4.7300e+03,1.3790e-07
4.7400e+03,1.3792e-07
4.7500e+03,1.3794e-07
4.7600e+03,1.3796e-07
4.7700e+03,1.3799e-07
4.7800e+03,1.3801e-07
4.7900e+03,1.3803e-07
4.8000e+03,1.3806e-07
4.8100e+03,1.3808e-07
4.8200e+03,1.3811e-07
4.8300e+03,1.3813e-07
4.8400e+03,1.3816e-07
4.8500e+03,1.3818e-07
4.8600e+03,1.3821e-07
4.8700e+03,1.3824e-07
4.8800e+03,1.3827e-07
4.8900e+03,1.3830e-07
4.9000e+03,1.3833e-07
4.9100e+03,1.3835e-07
4.9200e+03,1.3838e-07
4.9300e+03,1.3842e-07
4.9400e+03,1.3845e-07
4.9500e+03,1.3848e-07
4.9600e+03,1.3851e-07
4.9700e+03,1.3854e-07
4.9800e+03,1.3858e-07
4.9900e+03,1.3861e-07
5.0000e+03,1.3864e-07
5.0100e+03,1.3868e-07
5.0200e+03,1.3871e-07
5.0300e+03,1.3875e-07
5.0400e+03,1.3878e-07
5.0500e+03,1.3882e-07
5.0600e+03,1.3885e-07
5.0700e+03,1.3889e-07
5.0800e+03,1.3893e-07
5.0900e+03,1.3896e-07
5.1000e+03,1.3900e-07
5.1100e+03,1.3904e-07
5.1200e+03,1.3908e-07
5.1300e+03,1.3911e-07
5.1400e+03,1.3915e-07
5.1500e+03,1.3919e-07
5.1600e+03,1.3923e-07
5.1700e+03,1.3927e-07
5.1800e+03,1.3930e-07
5.1900e+03,1.3934e-07
5.2000e+03,1.3938e-07
5.2100e+03,1.3942e-07
5.2200e+03,1.3945e-07
5.2300e+03,1.3949e-07
5.2400e+03,1.3953e-07
5.2500e+03,1.3956e-07
5.2600e+03,1.3960e-07
5.2700e+03,1.3963e-07
5.2800e+03,1.3967e-07
5.2900e+03,1.3970e-07
5.3000e+03,1.3974e-07
5.3100e+03,1.3977e-07
5.3200e+03,1.3980e-07
5.3300e+03,1.3983e-07
5.3400e+03,1.3986e-07
5.3500e+03,1.3989e-07
5.3600e+03,1.3992e-07
5.3700e+03,1.3995e-07
5.3800e+03,1.3998e-07
5.3900e+03,1.4001e-07
5.4000e+03,1.4003e-07
5.4100e+03,1.4006e-07
5.4200e+03,1.4008e-07
5.4300e+03,1.4011e-07
5.4400e+03,1.4013e-07
5.4500e+03,1.4015e-07
5.4600e+03,1.4017e-07
5.4700e+03,1.4019e-07
5.4800e+03,1.4021e-07
5.4900e+03,1.4023e-07
5.5000e+03,1.4024e-07
5.5100e+03,1.4026e-07
5.5200e+03,1.4027e-07
5.5300e+03,1.4028e-07
5.5400e+03,1.4029e-07
5.5500e+03,1.4030e-07
5.5600e+03,1.4031e-07
5.5700e+03,1.4032e-07
5.5800e+03,1.4032e-07
5.5900e+03,1.4033e-07
5.6000e+03,1.4033e-07
5.6100e+03,1.4033e-07
5.6200e+03,1.4034e-07
5.6300e+03,1.4033e-07
5.6400e+03,1.4033e-07
5.6500e+03,1.4033e-07
5.6600e+03,1.4033e-07
5.6700e+03,1.4032e-07
5.6800e+03,1.4031e-07
5.6900e+03,1.4031e-07
5.7000e+03,1.4030e-07
5.7100e+03,1.4029e-07
5.7200e+03,1.4027e-07
5.7300e+03,1.4026e-07
5.7400e+03,1.4025e-07
5.7500e+03,1.4023e-07
5.7600e+03,1.4022e-07
5.7700e+03,1.4020e-07
5.7800e+03,1.4018e-07
5.7900e+03,1.4016e-07
5.8000e+03,1.4014e-07
5.8100e+03,1.4012e-07
5.8200e+03,1.4009e-07
5.8300e+03,1.4007e-07
5.8400e+03,1.4004e-07
5.8500e+03,1.4002e-07
5.8600e+03,1.3999e-07
5.8700e+03,1.3996e-07
5.8800e+03,1.3993e-07
5.8900e+03,1.3990e-07
5.9000e+03,1.3987e-07
5.9100e+03,1.3984e-07
5.9200e+03,1.3980e-07
5.9300e+03,1.3977e-07
5.9400e+03,1.3973e-07
5.9500e+03,1.3970e-07
5.9600e+03,1.3966e-07
5.9700e+03,1.3963e-07
5.9800e+03,1.3959e-07
5.9900e+03,1.3955e-07
6.0000e+03,1.3951e-07
6.0100e+03,1.3947e-07
6.0200e+03,1.3943e-07
6.0300e+03,1.3939e-07
6.0400e+03,1.3935e-07
6.0500e+03,1.3931e-07
6.0600e+03,1.3926e-07
6.0700e+03,1.3922e-07
6.0800e+03,1.3918e-07
6.0900e+03,1.3913e-07
6.1000e+03,1.3909e-07
6.1100e+03,1.3904e-07
6.1200e+03,1.3900e-07
6.1300e+03,1.3895e-07
6.1400e+03,1.3891e-07
6.1500e+03,1.3886e-07
6.1600e+03,1.3881e-07
6.1700e+03,1.3877e-07
6.1800e+03,1.3872e-07
6.1900e+03,1.3867e-07
6.2000e+03,1.3862e-07
6.2100e+03,1.3857e-07
6.2200e+03,1.3853e-07
6.2300e+03,1.3848e-07
6.2400e+03,1.3843e-07
6.2500e+03,1.3838e-07
6.2600e+03,1.3833e-07
6.2700e+03,1.3828e-07
6.2800e+03,1.3823e-07
6.2900e+03,1.3818e-07
6.3000e+03,1.3813e-07
6.3100e+03,1.3808e-07
6.3200e+03,1.3803e-07
6.3300e+03,1.3798e-07
6.3400e+03,1.3793e-07
6.3500e+03,1.3788e-07
6.3600e+03,1.3782e-07
6.3700e+03,1.3777e-07
6.3800e+03,1.3772e-07
6.3900e+03,1.3767e-07
6.4000e+03,1.3762e-07
6.4100e+03,1.3757e-07
6.4200e+03,1.3752e-07
6.4300e+03,1.3746e-07
6.4400e+03,1.3741e-07
6.4500e+03,1.3736e-07
6.4600e+03,1.3731e-07
6.4700e+03,1.3725e-07
6.4800e+03,1.3720e-07
6.4900e+03,1.3715e-07
6.5000e+03,1.3710e-07
6.5100e+03,1.3705e-07
6.5200e+03,1.3699e-07
6.5300e+03,1.3694e-07
6.5400e+03,1.3689e-07
6.5500e+03,1.3684e-07
6.5600e+03,1.3679e-07
6.5700e+03,1.3673e-07
6.5800e+03,1.3668e-07
6.5900e+03,1.3663e-07
6.6000e+03,1.3658e-07
6.6100e+03,1.3653e-07
6.6200e+03,1.3648e-07
6.6300e+03,1.3642e-07
6.6400e+03,1.3637e-07
6.6500e+03,1.3632e-07
6.6600e+03,1.3627e-07
6.6700e+03,1.3622e-07
6.6800e+03,1.3617e-07
6.6900e+03,1.3612e-07
6.7000e+03,1.3608e-07
6.7100e+03,1.3603e-07
6.7200e+03,1.3598e-07
6.7300e+03,1.3593e-07
6.7400e+03,1.3588e-07
6.7500e+03,1.3584e-07
6.7600e+03,1.3579e-07
6.7700e+03,1.3575e-07
6.7800e+03,1.3570e-07
6.7900e+03,1.3566e-07
6.8000e+03,1.3561e-07
6.8100e+03,1.3557e-07
6.8200e+03,1.3553e-07
6.8300e+03,1.3548e-07
6.8400e+03,1.3544e-07
6.8500e+03,1.3540e-07
6.8600e+03,1.3536e-07
6.8700e+03,1.3533e-07
6.8800e+03,1.3529e-07
6.8900e+03,1.3525e-07
6.9000e+03,1.3521e-07
6.9100e+03,1.3518e-07
6.9200e+03,1.3515e-07
6.9300e+03,1.3511e-07
6.9400e+03,1.3508e-07
6.9500e+03,1.3505e-07
6.9600e+03,1.3502e-07
6.9700e+03,1.3499e-07
6.9800e+03,1.3496e-07
6.9900e+03,1.3493e-07
7.0000e+03,1.3491e-07
7.0100e+03,1.3488e-07
7.0200e+03,1.3485e-07
7.0300e+03,1.3483e-07
7.0400e+03,1.3481e-07
7.0500e+03,1.3479e-07
7.0600e+03,1.3477e-07
7.0700e+03,1.3474e-07
7.0800e+03,1.3473e-07
7.0900e+03,1.3471e-07
7.1000e+03,1.3469e-07
7.1100e+03,1.3467e-07
7.1200e+03,1.3466e-07
7.1300e+03,1.3464e-07
7.1400e+03,1.3463e-07
7.1500e+03,1.3461e-07
7.1600e+03,1.3460e-07
7.1700e+03,1.3459e-07
7.1800e+03,1.3458e-07
7.1900e+03,1.3456e-07
7.2000e+03,1.3455e-07
7.2100e+03,1.3454e-07
7.2200e+03,1.3453e-07
7.2300e+03,1.3453e-07
7.2400e+03,1.3452e-07
7.2500e+03,1.3451e-07
7.2600e+03,1.3450e-07
7.2700e+03,1.3449e-07
7.2800e+03,1.3449e-07
7.2900e+03,1.3448e-07
7.3000e+03,1.3447e-07
7.3100e+03,1.3447e-07
7.3200e+03,1.3446e-07
7.3300e+03,1.3446e-07
7.3400e+03,1.3445e-07
7.3500e+03,1.3445e-07
7.3600e+03,1.3444e-07
7.3700e+03,1.3444e-07
7.3800e+03,1.3443e-07
7.3900e+03,1.3443e-07
7.4000e+03,1.3443e-07
7.4100e+03,1.3442e-07
7.4200e+03,1.3442e-07
7.4300e+03,1.3441e-07
7.4400e+03,1.3441e-07
7.4500e+03,1.3440e-07
7.4600e+03,1.3440e-07
7.4700e+03,1.3440e-07
7.4800e+03,1.3439e-07
7.4900e+03,1.3439e-07
7.5000e+03,1.3438e-07
7.5100e+03,1.3438e-07
7.5200e+03,1.3437e-07
7.5300e+03,1.3437e-07
7.5400e+03,1.3436e-07
7.5500e+03,1.3435e-07
7.5600e+03,1.3435e-07
7.5700e+03,1.3434e-07
7.5800e+03,1.3433e-07
7.5900e+03,1.3432e-07
7.6000e+03,1.3432e-07
7.6100e+03,1.3431e-07
7.6200e+03,1.3430e-07
7.6300e+03,1.3429e-07
7.6400e+03,1.3428e-07
7.6500e+03,1.3427e-07
7.6600e+03,1.3426e-07
7.6700e+03,1.3424e-07
7.6800e+03,1.3423e-07
7.6900e+03,1.3422e-07
7.7000e+03,1.3421e-07
7.7100e+03,1.3419e-07
7.7200e+03,1.3418e-07
7.7300e+03,1.3416e-07
7.7400e+03,1.3415e-07
7.7500e+03,1.3413e-07
7.7600e+03,1.3411e-07
7.7700e+03,1.3410e-07
7.7800e+03,1.3408e-07
7.7900e+03,1.3406e-07
7.8000e+03,1.3404e-07
7.8100e+03,1.3402e-07
7.8200e+03,1.3400e-07
7.8300e+03,1.3398e-07
7.8400e+03,1.3396e-07
7.8500e+03,1.3394e-07
7.8600e+03,1.3392e-07
7.8700e+03,1.3390e-07
7.8800e+03,1.3387e-07
7.8900e+03,1.3385e-07
7.9000e+03,1.3383e-07
7.9100e+03,1.3381e-07
7.9200e+03,1.3378e-07
7.9300e+03,1.3376e-07
7.9400e+03,1.3374e-07
7.9500e+03,1.3371e-07
7.9600e+03,1.3369e-07
7.9700e+03,1.3367e-07
7.9800e+03,1.3364e-07
7.9900e+03,1.3362e-07
8.0000e+03,1.3360e-07
8.0100e+03,1.3357e-07
8.0200e+03,1.3355e-07
8.0300e+03,1.3353e-07
8.0400e+03,1.3350e-07
8.0500e+03,1.3348e-07
8.0600e+03,1.3346e-07
8.0700e+03,1.3343e-07
8.0800e+03,1.3341e-07
8.0900e+03,1.3339e-07
8.1000e+03,1.3337e-07
8.1100e+03,1.3334e-07
8.1200e+03,1.3332e-07
8.1300e+03,1.3330e-07
8.1400e+03,1.3327e-07
8.1500e+03,1.3325e-07
8.1600e+03,1.3323e-07
8.1700e+03,1.3320e-07
8.1800e+03,1.3318e-07
8.1900e+03,1.3315e-07
8.2000e+03,1.3313e-07
8.2100e+03,1.3310e-07
8.2200e+03,1.3308e-07
8.2300e+03,1.3305e-07
8.2400e+03,1.3303e-07
8.2500e+03,1.3300e-07
8.2600e+03,1.3297e-07
8.2700e+03,1.3294e-07
8.2800e+03,1.3292e-07
8.2900e+03,1.3289e-07
8.3000e+03,1.3286e-07
8.3100e+03,1.3282e-07
8.3200e+03,1.3279e-07
8.3300e+03,1.3276e-07
8.3400e+03,1.3273e-07
8.3500e+03,1.3269e-07
8.3600e+03,1.3265e-07
8.3700e+03,1.3262e-07
8.3800e+03,1.3258e-07
8.3900e+03,1.3254e-07
8.4000e+03,1.3250e-07
8.4100e+03,1.3246e-07
8.4200e+03,1.3242e-07
8.4300e+03,1.3237e-07
8.4400e+03,1.3233e-07
8.4500e+03,1.3228e-07
8.4600e+03,1.3223e-07
8.4700e+03,1.3218e-07
8.4800e+03,1.3214e-07
8.4900e+03,1.3208e-07
8.5000e+03,1.3203e-07
8.5100e+03,1.3198e-07
8.5200e+03,1.3193e-07
8.5300e+03,1.3187e-07
8.5400e+03,1.3182e-07
8.5500e+03,1.3176e-07
8.5600e+03,1.3170e-07
8.5700e+03,1.3165e-07
8.5800e+03,1.3159e-07
8.5900e+03,1.3153e-07
8.6000e+03,1.3147e-07
8.6100e+03,1.3141e-07
8.6200e+03,1.3135e-07
8.6300e+03,1.3129e-07
8.6400e+03,1.3123e-07
8.6500e+03,1.3117e-07
8.6600e+03,1.3111e-07
8.6700e+03,1.3105e-07
8.6800e+03,1.3100e-07
8.6900e+03,1.3094e-07
8.7000e+03,1.3088e-07
8.7100e+03,1.3082e-07
8.7200e+03,1.3077e-07
8.7300e+03,1.3071e-07
8.7400e+03,1.3066e-07
8.7500e+03,1.3060e-07
8.7600e+03,1.3055e-07
8.7700e+03,1.3050e-07
8.7800e+03,1.3045e-07
8.7900e+03,1.3041e-07
8.8000e+03,1.3036e-07
8.8100e+03,1.3031e-07
8.8200e+03,1.3027e-07
8.8300e+03,1.3023e-07
8.8400e+03,1.3019e-07
8.8500e+03,1.3016e-07
8.8600e+03,1.3012e-07
8.8700e+03,1.3009e-07
8.8800e+03,1.3006e-07
8.8900e+03,1.3003e-07
8.9000e+03,1.3000e-07
8.9100e+03,1.2998e-07
8.9200e+03,1.2995e-07
8.9300e+03,1.2993e-07
8.9400e+03,1.2992e-07
8.9500e+03,1.2990e-07
8.9600e+03,1.2989e-07
8.9700e+03,1.2988e-07
8.9800e+03,1.2987e-07
8.9900e+03,1.2986e-07
9.0000e+03,1.2986e-07
9.0100e+03,1.2985e-07
9.0200e+03,1.2985e-07
9.0300e+03,1.2985e-07
9.0400e+03,1.2985e-07
9.0500e+03,1.2986e-07
9.0600e+03,1.2986e-07
9.0700e+03,1.2987e-07
