# Time , Side-Flux
0.0000e+00,0.0000e+00
1.0000e+01,4.4469e-07
2.0000e+01,8.8586e-07
3.0000e+01,1.3201e-06
4.0000e+01,1.7443e-06
5.0000e+01,2.1555e-06
6.0000e+01,2.5513e-06
7.0000e+01,2.9296e-06
8.0000e+01,3.2889e-06
9.0000e+01,3.6281e-06
1.0000e+02,3.9465e-06
1.1000e+02,4.2437e-06
1.2000e+02,4.5199e-06
1.3000e+02,4.7754e-06
1.4000e+02,5.0109e-06
1.5000e+02,5.2271e-06
1.6000e+02,5.4249e-06
1.7000e+02,5.6055e-06
1.8000e+02,5.7698e-06
1.9000e+02,5.9191e-06
2.0000e+02,6.0545e-06
2.1000e+02,6.1771e-06
2.2000e+02,6.2879e-06
2.3000e+02,6.3879e-06
2.4000e+02,6.4782e-06
2.5000e+02,6.5596e-06
2.6000e+02,6.6330e-06
2.7000e+02,6.6991e-06
2.8000e+02,6.7587e-06
2.9000e+02,6.8124e-06
3.0000e+02,6.8608e-06
3.1000e+02,6.9043e-06
3.2000e+02,6.9436e-06
3.3000e+02,6.9790e-06
3.4000e+02,7.0109e-06
3.5000e+02,7.0397e-06
3.6000e+02,7.0656e-06
3.7000e+02,7.0890e-06
3.8000e+02,7.1101e-06
3.9000e+02,7.1291e-06
4.0000e+02,7.1462e-06
4.1000e+02,7.1617e-06
4.2000e+02,7.1756e-06
4.3000e+02,7.1881e-06
4.4000e+02,7.1994e-06
4.5000e+02,7.2095e-06
4.6000e+02,7.2187e-06
4.7000e+02,7.2270e-06
4.8000e+02,7.2344e-06
4.9000e+02,7.2412e-06
5.0000e+02,7.2473e-06
5.1000e+02,7.2529e-06
5.2000e+02,7.2580e-06
5.3000e+02,7.2627e-06
5.4000e+02,7.2670e-06
5.5000e+02,7.2710e-06
5.6000e+02,7.2748e-06
5.7000e+02,7.2784e-06
5.8000e+02,7.2817e-06
5.9000e+02,7.2849e-06
6.0000e+02,7.2880e-06
6.1000e+02,7.2909e-06
6.2000e+02,7.2937e-06
6.3000e+02,7.2964e-06
6.4000e+02,7.2990e-06
6.5000e+02,7.3016e-06
6.6000e+02,7.3042e-06
6.7000e+02,7.3067e-06
6.8000e+02,7.3093e-06
6.9000e+02,7.3119e-06
7.0000e+02,7.3146e-06
7.1000e+02,7.3175e-06
7.2000e+02,7.3205e-06
7.3000e+02,7.3237e-06
7.4000e+02,7.3271e-06
7.5000e+02,7.3307e-06
7.6000e+02,7.3345e-06
7.7000e+02,7.3385e-06
7.8000e+02,7.3427e-06
7.9000e+02,7.3470e-06
8.0000e+02,7.3513e-06
8.1000e+02,7.3556e-06
8.2000e+02,7.3598e-06
8.3000e+02,7.3638e-06
8.4000e+02,7.3675e-06
8.5000e+02,7.3707e-06
8.6000e+02,7.3734e-06
8.7000e+02,7.3755e-06
8.8000e+02,7.3768e-06
8.9000e+02,7.3772e-06
9.0000e+02,7.3766e-06
9.1000e+02,7.3751e-06
9.2000e+02,7.3724e-06
9.3000e+02,7.3686e-06
9.4000e+02,7.3637e-06
9.5000e+02,7.3577e-06
9.6000e+02,7.3505e-06
9.7000e+02,7.3423e-06
9.8000e+02,7.3331e-06
9.9000e+02,7.3229e-06
1.0000e+03,7.3120e-06
1.0100e+03,7.3004e-06
1.0200e+03,7.2883e-06
1.0300e+03,7.2758e-06
1.0400e+03,7.2630e-06
1.0500e+03,7.2500e-06
1.0600e+03,7.2371e-06
1.0700e+03,7.2244e-06
1.0800e+03,7.2120e-06
1.0900e+03,7.2000e-06
1.1000e+03,7.1886e-06
1.1100e+03,7.1779e-06
1.1200e+03,7.1679e-06
1.1300e+03,7.1587e-06
1.1400e+03,7.1505e-06
1.1500e+03,7.1432e-06
1.1600e+03,7.1369e-06
1.1700e+03,7.1315e-06
1.1800e+03,7.1272e-06
1.1900e+03,7.1238e-06
1.2000e+03,7.1212e-06
1.2100e+03,7.1195e-06
1.2200e+03,7.1186e-06
1.2300e+03,7.1184e-06
1.2400e+03,7.1187e-06
1.2500e+03,7.1196e-06
1.2600e+03,7.1208e-06
1.2700e+03,7.1223e-06
1.2800e+03,7.1241e-06
1.2900e+03,7.1261e-06
1.3000e+03,7.1281e-06
1.3100e+03,7.1301e-06
1.3200e+03,7.1321e-06
1.3300e+03,7.1341e-06
1.3400e+03,7.1360e-06
1.3500e+03,7.1379e-06
1.3600e+03,7.1396e-06
1.3700e+03,7.1413e-06
1.3800e+03,7.1429e-06
1.3900e+03,7.1445e-06
1.4000e+03,7.1460e-06
1.4100e+03,7.1474e-06
1.4200e+03,7.1488e-06
1.4300e+03,7.1502e-06
1.4400e+03,7.1514e-06
1.4500e+03,7.1526e-06
1.4600e+03,7.1537e-06
1.4700e+03,7.1547e-06
1.4800e+03,7.1556e-06
1.4900e+03,7.1563e-06
1.5000e+03,7.1568e-06
1.5100e+03,7.1572e-06
1.5200e+03,7.1573e-06
1.5300e+03,7.1573e-06
1.5400e+03,7.1570e-06
1.5500e+03,7.1565e-06
1.5600e+03,7.1558e-06
1.5700e+03,7.1548e-06
1.5800e+03,7.1536e-06
1.5900e+03,7.1522e-06
1.6000e+03,7.1505e-06
1.6100e+03,7.1485e-06
1.6200e+03,7.1462e-06
1.6300e+03,7.1437e-06
1.6400e+03,7.1409e-06
1.6500e+03,7.1377e-06
1.6600e+03,7.1343e-06
1.6700e+03,7.1305e-06
1.6800e+03,7.1264e-06
1.6900e+03,7.1220e-06
1.7000e+03,7.1173e-06
1.7100e+03,7.1122e-06
1.7200e+03,7.1069e-06
1.7300e+03,7.1013e-06
1.7400e+03,7.0955e-06
1.7500e+03,7.0894e-06
1.7600e+03,7.0832e-06
1.7700e+03,7.0769e-06
1.7800e+03,7.0705e-06
1.7900e+03,7.0641e-06
1.8000e+03,7.0578e-06
1.8100e+03,7.0515e-06
1.8200e+03,7.0454e-06
1.8300e+03,7.0395e-06
1.8400e+03,7.0339e-06
1.8500e+03,7.0286e-06
1.8600e+03,7.0237e-06
1.8700e+03,7.0192e-06
1.8800e+03,7.0151e-06
1.8900e+03,7.0115e-06
1.9000e+03,7.0082e-06
1.9100e+03,7.0054e-06
1.9200e+03,7.0030e-06
1.9300e+03,7.0010e-06
1.9400e+03,6.9992e-06
1.9500e+03,6.9977e-06
1.9600e+03,6.9964e-06
1.9700e+03,6.9952e-06
1.9800e+03,6.9940e-06
1.9900e+03,6.9929e-06
2.0000e+03,6.9916e-06
2.0100e+03,6.9901e-06
2.0200e+03,6.9885e-06
2.0300e+03,6.9864e-06
2.0400e+03,6.9841e-06
2.0500e+03,6.9812e-06
2.0600e+03,6.9778e-06
2.0700e+03,6.9738e-06
2.0800e+03,6.9692e-06
2.0900e+03,6.9639e-06
2.1000e+03,6.9578e-06
2.1100e+03,6.9510e-06
2.1200e+03,6.9433e-06
2.1300e+03,6.9349e-06
2.1400e+03,6.9258e-06
2.1500e+03,6.9159e-06
2.1600e+03,6.9054e-06
2.1700e+03,6.8944e-06
2.1800e+03,6.8830e-06
2.1900e+03,6.8712e-06
2.2000e+03,6.8593e-06
2.2100e+03,6.8474e-06
2.2200e+03,6.8356e-06
2.2300e+03,6.8242e-06
2.2400e+03,6.8132e-06
2.2500e+03,6.8028e-06
2.2600e+03,6.7931e-06
2.2700e+03,6.7841e-06
2.2800e+03,6.7761e-06
2.2900e+03,6.7689e-06
2.3000e+03,6.7626e-06
2.3100e+03,6.7572e-06
2.3200e+03,6.7527e-06
2.3300e+03,6.7489e-06
2.3400e+03,6.7459e-06
2.3500e+03,6.7435e-06
2.3600e+03,6.7417e-06
2.3700e+03,6.7403e-06
2.3800e+03,6.7394e-06
2.3900e+03,6.7388e-06
2.4000e+03,6.7384e-06
2.4100e+03,6.7383e-06
2.4200e+03,6.7382e-06
2.4300e+03,6.7383e-06
2.4400e+03,6.7384e-06
2.4500e+03,6.7385e-06
2.4600e+03,6.7386e-06
2.4700e+03,6.7387e-06
2.4800e+03,6.7387e-06
2.4900e+03,6.7387e-06
2.5000e+03,6.7386e-06
2.5100e+03,6.7384e-06
2.5200e+03,6.7381e-06
2.5300e+03,6.7378e-06
2.5400e+03,6.7373e-06
2.5500e+03,6.7368e-06
2.5600e+03,6.7361e-06
2.5700e+03,6.7354e-06
2.5800e+03,6.7345e-06
2.5900e+03,6.7336e-06
2.6000e+03,6.7325e-06
2.6100e+03,6.7314e-06
2.6200e+03,6.7301e-06
2.6300e+03,6.7287e-06
2.6400e+03,6.7271e-06
2.6500e+03,6.7255e-06
2.6600e+03,6.7237e-06
2.6700e+03,6.7218e-06
2.6800e+03,6.7198e-06
2.6900e+03,6.7176e-06
2.7000e+03,6.7154e-06
2.7100e+03,6.7130e-06
2.7200e+03,6.7106e-06
2.7300e+03,6.7081e-06
2.7400e+03,6.7055e-06
2.7500e+03,6.7028e-06
2.7600e+03,6.7001e-06
2.7700e+03,6.6973e-06
2.7800e+03,6.6945e-06
2.7900e+03,6.6916e-06
2.8000e+03,6.6887e-06
2.8100e+03,6.6858e-06
2.8200e+03,6.6827e-06
2.8300e+03,6.6797e-06
2.8400e+03,6.6765e-06
2.8500e+03,6.6731e-06
2.8600e+03,6.6696e-06
2.8700e+03,6.6659e-06
2.8800e+03,6.6619e-06
2.8900e+03,6.6576e-06
2.9000e+03,6.6530e-06
2.9100e+03,6.6480e-06
2.9200e+03,6.6426e-06
2.9300e+03,6.6367e-06
2.9400e+03,6.6304e-06
2.9500e+03,6.6237e-06
2.9600e+03,6.6165e-06
2.9700e+03,6.6089e-06
2.9800e+03,6.6009e-06
2.9900e+03,6.5927e-06
3.0000e+03,6.5842e-06
3.0100e+03,6.5756e-06
3.0200e+03,6.5670e-06
3.0300e+03,6.5584e-06
3.0400e+03,6.5500e-06
3.0500e+03,6.5418e-06
3.0600e+03,6.5341e-06
3.0700e+03,6.5268e-06
3.0800e+03,6.5201e-06
3.0900e+03,6.5140e-06
3.1000e+03,6.5087e-06
3.1100e+03,6.5042e-06
3.1200e+03,6.5004e-06
3.1300e+03,6.4975e-06
3.1400e+03,6.4954e-06
3.1500e+03,6.4942e-06
3.1600e+03,6.4937e-06
3.1700e+03,6.4939e-06
3.1800e+03,6.4948e-06
3.1900e+03,6.4962e-06
3.2000e+03,6.4982e-06
3.2100e+03,6.5005e-06
3.2200e+03,6.5032e-06
3.2300e+03,6.5062e-06
3.2400e+03,6.5093e-06
3.2500e+03,6.5125e-06
3.2600e+03,6.5158e-06
3.2700e+03,6.5190e-06
3.2800e+03,6.5222e-06
3.2900e+03,6.5253e-06
3.3000e+03,6.5284e-06
3.3100e+03,6.5313e-06
3.3200e+03,6.5340e-06
3.3300e+03,6.5367e-06
3.3400e+03,6.5392e-06
3.3500e+03,6.5416e-06
3.3600e+03,6.5439e-06
3.3700e+03,6.5460e-06
3.3800e+03,6.5481e-06
3.3900e+03,6.5501e-06
3.4000e+03,6.5519e-06
3.4100e+03,6.5537e-06
3.4200e+03,6.5553e-06
3.4300e+03,6.5567e-06
3.4400e+03,6.5580e-06
3.4500e+03,6.5591e-06
3.4600e+03,6.5599e-06
3.4700e+03,6.5605e-06
3.4800e+03,6.5609e-06
3.4900e+03,6.5610e-06
3.5000e+03,6.5608e-06
3.5100e+03,6.5603e-06
3.5200e+03,6.5595e-06
3.5300e+03,6.5585e-06
3.5400e+03,6.5573e-06
3.5500e+03,6.5558e-06
3.5600e+03,6.5541e-06
3.5700e+03,6.5522e-06
3.5800e+03,6.5502e-06
3.5900e+03,6.5480e-06
3.6000e+03,6.5457e-06
3.6100e+03,6.5434e-06
3.6200e+03,6.5410e-06
3.6300e+03,6.5386e-06
3.6400e+03,6.5361e-06
3.6500e+03,6.5336e-06
3.6600e+03,6.5310e-06
3.6700e+03,6.5284e-06
3.6800e+03,6.5258e-06
3.6900e+03,6.5231e-06
3.7000e+03,6.5203e-06
3.7100e+03,6.5174e-06
3.7200e+03,6.5144e-06
3.7300e+03,6.5113e-06
3.7400e+03,6.5081e-06
3.7500e+03,6.5048e-06
3.7600e+03,6.5014e-06
3.7700e+03,6.4979e-06
3.7800e+03,6.4944e-06
3.7900e+03,6.4908e-06
3.8000e+03,6.4871e-06
3.8100e+03,6.4834e-06
3.8200e+03,6.4796e-06
3.8300e+03,6.4758e-06
3.8400e+03,6.4719e-06
3.8500e+03,6.4678e-06
3.8600e+03,6.4637e-06
3.8700e+03,6.4594e-06
3.8800e+03,6.4550e-06
3.8900e+03,6.4505e-06
3.9000e+03,6.4458e-06
3.9100e+03,6.4409e-06
3.9200e+03,6.4359e-06
3.9300e+03,6.4307e-06
3.9400e+03,6.4254e-06
3.9500e+03,6.4201e-06
3.9600e+03,6.4146e-06
3.9700e+03,6.4091e-06
3.9800e+03,6.4036e-06
3.9900e+03,6.3981e-06
4.0000e+03,6.3926e-06
4.0100e+03,6.3872e-06
4.0200e+03,6.3819e-06
4.0300e+03,6.3767e-06
4.0400e+03,6.3717e-06
4.0500e+03,6.3668e-06
4.0600e+03,6.3620e-06
4.0700e+03,6.3575e-06
4.0800e+03,6.3532e-06
4.0900e+03,6.3492e-06
4.1000e+03,6.3454e-06
4.1100e+03,6.3419e-06
4.1200e+03,6.3386e-06
4.1300e+03,6.3356e-06
4.1400e+03,6.3329e-06
4.1500e+03,6.3305e-06
4.1600e+03,6.3283e-06
4.1700e+03,6.3263e-06
4.1800e+03,6.3245e-06
4.1900e+03,6.3229e-06
4.2000e+03,6.3214e-06
4.2100e+03,6.3201e-06
4.2200e+03,6.3188e-06
4.2300e+03,6.3176e-06
4.2400e+03,6.3165e-06
4.2500e+03,6.3155e-06
4.2600e+03,6.3144e-06
4.2700e+03,6.3134e-06
4.2800e+03,6.3123e-06
4.2900e+03,6.3113e-06
4.3000e+03,6.3102e-06
4.3100e+03,6.3092e-06
4.3200e+03,6.3081e-06
4.3300e+03,6.3070e-06
4.3400e+03,6.3060e-06
4.3500e+03,6.3049e-06
4.3600e+03,6.3038e-06
4.3700e+03,6.3027e-06
4.3800e+03,6.3016e-06
4.3900e+03,6.3006e-06
4.4000e+03,6.2995e-06
4.4100e+03,6.2985e-06
4.4200e+03,6.2974e-06
4.4300e+03,6.2964e-06
4.4400e+03,6.2955e-06
4.4500e+03,6.2945e-06
4.4600e+03,6.2936e-06
4.4700e+03,6.2927e-06
4.4800e+03,6.2918e-06
4.4900e+03,6.2910e-06
4.5000e+03,6.2902e-06
4.5100e+03,6.2895e-06
4.5200e+03,6.2888e-06
4.5300e+03,6.2881e-06
4.5400e+03,6.2875e-06
4.5500e+03,6.2869e-06
4.5600e+03,6.2863e-06
4.5700e+03,6.2858e-06
4.5800e+03,6.2854e-06
4.5900e+03,6.2849e-06
4.6000e+03,6.2845e-06
4.6100e+03,6.2841e-06
4.6200e+03,6.2837e-06
4.6300e+03,6.2834e-06
4.6400e+03,6.2830e-06
4.6500e+03,6.2826e-06
4.6600e+03,6.2821e-06
4.6700e+03,6.2817e-06
4.6800e+03,6.2811e-06
4.6900e+03,6.2806e-06
4.7000e+03,6.2799e-06
4.7100e+03,6.2792e-06
4.7200e+03,6.2784e-06
4.7300e+03,6.2775e-06
4.7400e+03,6.2765e-06
4.7500e+03,6.2754e-06
4.7600e+03,6.2742e-06
4.7700e+03,6.2728e-06
4.7800e+03,6.2713e-06
4.7900e+03,6.2697e-06
4.8000e+03,6.2679e-06
4.8100e+03,6.2660e-06
4.8200e+03,6.2639e-06
4.8300e+03,6.2616e-06
4.8400e+03,6.2592e-06
4.8500e+03,6.2565e-06
4.8600e+03,6.2537e-06
4.8700e+03,6.2508e-06
4.8800e+03,6.2476e-06
4.8900e+03,6.2443e-06
4.9000e+03,6.2408e-06
4.9100e+03,6.2372e-06
4.9200e+03,6.2335e-06
4.9300e+03,6.2296e-06
4.9400e+03,6.2257e-06
4.9500e+03,6.2217e-06
4.9600e+03,6.2176e-06
4.9700e+03,6.2136e-06
4.9800e+03,6.2096e-06
4.9900e+03,6.2057e-06
5.0000e+03,6.2019e-06
5.0100e+03,6.1982e-06
5.0200e+03,6.1947e-06
5.0300e+03,6.1913e-06
5.0400e+03,6.1880e-06
5.0500e+03,6.1848e-06
5.0600e+03,6.1816e-06
5.0700e+03,6.1785e-06
5.0800e+03,6.1752e-06
5.0900e+03,6.1716e-06
5.1000e+03,6.1678e-06
5.1100e+03,6.1635e-06
5.1200e+03,6.1586e-06
5.1300e+03,6.1530e-06
5.1400e+03,6.1466e-06
5.1500e+03,6.1393e-06
5.1600e+03,6.1311e-06
5.1700e+03,6.1220e-06
5.1800e+03,6.1120e-06
5.1900e+03,6.1011e-06
5.2000e+03,6.0894e-06
5.2100e+03,6.0770e-06
5.2200e+03,6.0642e-06
5.2300e+03,6.0510e-06
5.2400e+03,6.0377e-06
5.2500e+03,6.0243e-06
5.2600e+03,6.0112e-06
5.2700e+03,5.9985e-06
5.2800e+03,5.9863e-06
5.2900e+03,5.9748e-06
5.3000e+03,5.9641e-06
5.3100e+03,5.9543e-06
5.3200e+03,5.9456e-06
5.3300e+03,5.9379e-06
5.3400e+03,5.9313e-06
5.3500e+03,5.9258e-06
5.3600e+03,5.9214e-06
5.3700e+03,5.9181e-06
5.3800e+03,5.9158e-06
5.3900e+03,5.9144e-06
5.4000e+03,5.9139e-06
5.4100e+03,5.9141e-06
5.4200e+03,5.9149e-06
5.4300e+03,5.9160e-06
5.4400e+03,5.9175e-06
5.4500e+03,5.9190e-06
5.4600e+03,5.9205e-06
5.4700e+03,5.9218e-06
5.4800e+03,5.9228e-06
5.4900e+03,5.9234e-06
5.5000e+03,5.9236e-06
5.5100e+03,5.9234e-06
5.5200e+03,5.9226e-06
5.5300e+03,5.9215e-06
5.5400e+03,5.9200e-06
5.5500e+03,5.9182e-06
5.5600e+03,5.9162e-06
5.5700e+03,5.9141e-06
5.5800e+03,5.9120e-06
5.5900e+03,5.9099e-06
5.6000e+03,5.9079e-06
5.6100e+03,5.9061e-06
5.6200e+03,5.9045e-06
5.6300e+03,5.9031e-06
5.6400e+03,5.9020e-06
5.6500e+03,5.9010e-06
5.6600e+03,5.9002e-06
5.6700e+03,5.8995e-06
5.6800e+03,5.8990e-06
5.6900e+03,5.8986e-06
5.7000e+03,5.8983e-06
5.7100e+03,5.8982e-06
5.7200e+03,5.8983e-06
5.7300e+03,5.8986e-06
5.7400e+03,5.8991e-06
5.7500e+03,5.8999e-06
5.7600e+03,5.9010e-06
5.7700e+03,5.9025e-06
5.7800e+03,5.9044e-06
5.7900e+03,5.9067e-06
5.8000e+03,5.9094e-06
5.8100e+03,5.9124e-06
5.8200e+03,5.9156e-06
5.8300e+03,5.9191e-06
5.8400e+03,5.9227e-06
5.8500e+03,5.9262e-06
5.8600e+03,5.9296e-06
5.8700e+03,5.9327e-06
5.8800e+03,5.9353e-06
5.8900e+03,5.9373e-06
5.9000e+03,5.9385e-06
5.9100e+03,5.9390e-06
5.9200e+03,5.9384e-06
5.9300e+03,5.9368e-06
5.9400e+03,5.9341e-06
5.9500e+03,5.9303e-06
5.9600e+03,5.9253e-06
5.9700e+03,5.9193e-06
5.9800e+03,5.9122e-06
5.9900e+03,5.9043e-06
6.0000e+03,5.8955e-06
6.0100e+03,5.8862e-06
6.0200e+03,5.8764e-06
6.0300e+03,5.8665e-06
6.0400e+03,5.8565e-06
6.0500e+03,5.8468e-06
6.0600e+03,5.8375e-06
6.0700e+03,5.8289e-06
6.0800e+03,5.8210e-06
6.0900e+03,5.8142e-06
6.1000e+03,5.8084e-06
6.1100e+03,5.8038e-06
6.1200e+03,5.8005e-06
6.1300e+03,5.7984e-06
6.1400e+03,5.7976e-06
6.1500e+03,5.7979e-06
6.1600e+03,5.7993e-06
6.1700e+03,5.8016e-06
6.1800e+03,5.8048e-06
6.1900e+03,5.8086e-06
6.2000e+03,5.8129e-06
6.2100e+03,5.8175e-06
6.2200e+03,5.8223e-06
6.2300e+03,5.8271e-06
6.2400e+03,5.8317e-06
6.2500e+03,5.8362e-06
6.2600e+03,5.8402e-06
6.2700e+03,5.8438e-06
6.2800e+03,5.8469e-06
6.2900e+03,5.8494e-06
6.3000e+03,5.8514e-06
6.3100e+03,5.8528e-06
6.3200e+03,5.8536e-06
6.3300e+03,5.8540e-06
6.3400e+03,5.8539e-06
6.3500e+03,5.8535e-06
6.3600e+03,5.8528e-06
6.3700e+03,5.8518e-06
6.3800e+03,5.8506e-06
6.3900e+03,5.8494e-06
6.4000e+03,5.8482e-06
6.4100e+03,5.8470e-06
6.4200e+03,5.8459e-06
6.4300e+03,5.8450e-06
6.4400e+03,5.8442e-06
6.4500e+03,5.8437e-06
6.4600e+03,5.8434e-06
6.4700e+03,5.8433e-06
6.4800e+03,5.8435e-06
6.4900e+03,5.8439e-06
6.5000e+03,5.8446e-06
6.5100e+03,5.8455e-06
6.5200e+03,5.8465e-06
6.5300e+03,5.8478e-06
6.5400e+03,5.8491e-06
6.5500e+03,5.8505e-06
6.5600e+03,5.8520e-06
6.5700e+03,5.8534e-06
6.5800e+03,5.8548e-06
6.5900e+03,5.8561e-06
6.6000e+03,5.8573e-06
6.6100e+03,5.8583e-06
6.6200e+03,5.8592e-06
6.6300e+03,5.8598e-06
6.6400e+03,5.8602e-06
6.6500e+03,5.8603e-06
6.6600e+03,5.8602e-06
6.6700e+03,5.8599e-06
6.6800e+03,5.8593e-06
6.6900e+03,5.8584e-06
6.7000e+03,5.8573e-06
6.7100e+03,5.8559e-06
6.7200e+03,5.8543e-06
6.7300e+03,5.8524e-06
6.7400e+03,5.8502e-06
6.7500e+03,5.8478e-06
6.7600e+03,5.8452e-06
6.7700e+03,5.8423e-06
6.7800e+03,5.8391e-06
6.7900e+03,5.8355e-06
6.8000e+03,5.8317e-06
6.8100e+03,5.8274e-06
6.8200e+03,5.8227e-06
6.8300e+03,5.8174e-06
6.8400e+03,5.8116e-06
6.8500e+03,5.8050e-06
6.8600e+03,5.7977e-06
6.8700e+03,5.7894e-06
6.8800e+03,5.7802e-06
6.8900e+03,5.7699e-06
6.9000e+03,5.7586e-06
6.9100e+03,5.7461e-06
6.9200e+03,5.7325e-06
6.9300e+03,5.7178e-06
6.9400e+03,5.7021e-06
6.9500e+03,5.6853e-06
6.9600e+03,5.6677e-06
6.9700e+03,5.6495e-06
6.9800e+03,5.6307e-06
6.9900e+03,5.6115e-06
7.0000e+03,5.5923e-06
7.0100e+03,5.5732e-06
7.0200e+03,5.5544e-06
7.0300e+03,5.5363e-06
7.0400e+03,5.5190e-06
7.0500e+03,5.5027e-06
7.0600e+03,5.4877e-06
7.0700e+03,5.4742e-06
7.0800e+03,5.4623e-06
7.0900e+03,5.4523e-06
7.1000e+03,5.4442e-06
7.1100e+03,5.4381e-06
7.1200e+03,5.4342e-06
7.1300e+03,5.4325e-06
7.1400e+03,5.4330e-06
7.1500e+03,5.4358e-06
7.1600e+03,5.4408e-06
7.1700e+03,5.4480e-06
7.1800e+03,5.4573e-06
7.1900e+03,5.4687e-06
7.2000e+03,5.4820e-06
7.2100e+03,5.4972e-06
7.2200e+03,5.5140e-06
7.2300e+03,5.5323e-06
7.2400e+03,5.5520e-06
7.2500e+03,5.5729e-06
7.2600e+03,5.5948e-06
7.2700e+03,5.6175e-06
7.2800e+03,5.6409e-06
7.2900e+03,5.6647e-06
7.3000e+03,5.6889e-06
7.3100e+03,5.7131e-06
7.3200e+03,5.7373e-06
7.3300e+03,5.7612e-06
7.3400e+03,5.7847e-06
7.3500e+03,5.8076e-06
7.3600e+03,5.8298e-06
7.3700e+03,5.8511e-06
7.3800e+03,5.8714e-06
7.3900e+03,5.8904e-06
7.4000e+03,5.9082e-06
7.4100e+03,5.9245e-06
7.4200e+03,5.9392e-06
7.4300e+03,5.9523e-06
7.4400e+03,5.9637e-06
7.4500e+03,5.9732e-06
7.4600e+03,5.9808e-06
7.4700e+03,5.9865e-06
7.4800e+03,5.9902e-06
7.4900e+03,5.9920e-06
7.5000e+03,5.9918e-06
7.5100e+03,5.9897e-06
7.5200e+03,5.9858e-06
7.5300e+03,5.9802e-06
7.5400e+03,5.9729e-06
7.5500e+03,5.9641e-06
7.5600e+03,5.9538e-06
7.5700e+03,5.9424e-06
7.5800e+03,5.9298e-06
7.5900e+03,5.9162e-06
7.6000e+03,5.9019e-06
7.6100e+03,5.8869e-06
7.6200e+03,5.8714e-06
7.6300e+03,5.8555e-06
7.6400e+03,5.8394e-06
7.6500e+03,5.8231e-06
7.6600e+03,5.8068e-06
7.6700e+03,5.7906e-06
7.6800e+03,5.7745e-06
7.6900e+03,5.7585e-06
7.7000e+03,5.7428e-06
7.7100e+03,5.7274e-06
7.7200e+03,5.7122e-06
7.7300e+03,5.6973e-06
7.7400e+03,5.6827e-06
7.7500e+03,5.6684e-06
7.7600e+03,5.6543e-06
7.7700e+03,5.6404e-06
7.7800e+03,5.6267e-06
7.7900e+03,5.6132e-06
7.8000e+03,5.5998e-06
7.8100e+03,5.5865e-06
7.8200e+03,5.5733e-06
7.8300e+03,5.5602e-06
7.8400e+03,5.5471e-06
7.8500e+03,5.5341e-06
7.8600e+03,5.5211e-06
7.8700e+03,5.5081e-06
7.8800e+03,5.4951e-06
7.8900e+03,5.4821e-06
7.9000e+03,5.4692e-06
7.9100e+03,5.4562e-06
7.9200e+03,5.4434e-06
7.9300e+03,5.4306e-06
7.9400e+03,5.4179e-06
7.9500e+03,5.4053e-06
7.9600e+03,5.3930e-06
7.9700e+03,5.3808e-06
7.9800e+03,5.3689e-06
7.9900e+03,5.3573e-06
8.0000e+03,5.3460e-06
8.0100e+03,5.3350e-06
8.0200e+03,5.3245e-06
8.0300e+03,5.3143e-06
8.0400e+03,5.3047e-06
8.0500e+03,5.2954e-06
8.0600e+03,5.2867e-06
8.0700e+03,5.2784e-06
8.0800e+03,5.2706e-06
8.0900e+03,5.2632e-06
8.1000e+03,5.2563e-06
8.1100e+03,5.2498e-06
8.1200e+03,5.2438e-06
8.1300e+03,5.2382e-06
8.1400e+03,5.2330e-06
8.1500e+03,5.2281e-06
8.1600e+03,5.2237e-06
8.1700e+03,5.2196e-06
8.1800e+03,5.2159e-06
8.1900e+03,5.2125e-06
8.2000e+03,5.2094e-06
8.2100e+03,5.2066e-06
8.2200e+03,5.2041e-06
8.2300e+03,5.2017e-06
8.2400e+03,5.1996e-06
8.2500e+03,5.1976e-06
8.2600e+03,5.1956e-06
8.2700e+03,5.1936e-06
8.2800e+03,5.1916e-06
8.2900e+03,5.1895e-06
8.3000e+03,5.1872e-06
8.3100e+03,5.1846e-06
8.3200e+03,5.1818e-06
8.3300e+03,5.1785e-06
8.3400e+03,5.1747e-06
8.3500e+03,5.1705e-06
8.3600e+03,5.1656e-06
8.3700e+03,5.1601e-06
8.3800e+03,5.1540e-06
8.3900e+03,5.1472e-06
8.4000e+03,5.1397e-06
8.4100e+03,5.1315e-06
8.4200e+03,5.1226e-06
8.4300e+03,5.1131e-06
8.4400e+03,5.1030e-06
8.4500e+03,5.0924e-06
8.4600e+03,5.0813e-06
8.4700e+03,5.0698e-06
8.4800e+03,5.0579e-06
8.4900e+03,5.0458e-06
8.5000e+03,5.0334e-06
8.5100e+03,5.0209e-06
8.5200e+03,5.0082e-06
8.5300e+03,4.9956e-06
8.5400e+03,4.9829e-06
8.5500e+03,4.9703e-06
8.5600e+03,4.9578e-06
8.5700e+03,4.9454e-06
8.5800e+03,4.9333e-06
8.5900e+03,4.9214e-06
8.6000e+03,4.9099e-06
8.6100e+03,4.8987e-06
8.6200e+03,4.8880e-06
8.6300e+03,4.8779e-06
8.6400e+03,4.8683e-06
8.6500e+03,4.8595e-06
8.6600e+03,4.8513e-06
8.6700e+03,4.8440e-06
8.6800e+03,4.8374e-06
8.6900e+03,4.8316e-06
8.7000e+03,4.8266e-06
8.7100e+03,4.8224e-06
8.7200e+03,4.8189e-06
8.7300e+03,4.8160e-06
8.7400e+03,4.8137e-06
8.7500e+03,4.8118e-06
8.7600e+03,4.8103e-06
8.7700e+03,4.8092e-06
8.7800e+03,4.8082e-06
8.7900e+03,4.8073e-06
8.8000e+03,4.8065e-06
8.8100e+03,4.8058e-06
8.8200e+03,4.8050e-06
8.8300e+03,4.8043e-06
8.8400e+03,4.8036e-06
8.8500e+03,4.8029e-06
8.8600e+03,4.8025e-06
8.8700e+03,4.8023e-06
8.8800e+03,4.8025e-06
8.8900e+03,4.8033e-06
8.9000e+03,4.8047e-06
8.9100e+03,4.8069e-06
8.9200e+03,4.8101e-06
8.9300e+03,4.8144e-06
8.9400e+03,4.8201e-06
8.9500e+03,4.8271e-06
8.9600e+03,4.8358e-06
8.9700e+03,4.8461e-06
8.9800e+03,4.8583e-06
8.9900e+03,4.8725e-06
9.0000e+03,4.8888e-06
9.0100e+03,4.9073e-06
9.0200e+03,4.9281e-06
9.0300e+03,4.9514e-06
9.0400e+03,4.9772e-06
9.0500e+03,5.0056e-06
9.0600e+03,5.0367e-06
9.0700e+03,5.0704e-06
