# Time , Side-Flux
0.0000e+00,0.0000e+00
1.0000e+01,1.8055e-07
2.0000e+01,3.6012e-07
3.0000e+01,5.3777e-07
4.0000e+01,7.1257e-07
5.0000e+01,8.8368e-07
6.0000e+01,1.0503e-06
7.0000e+01,1.2118e-06
8.0000e+01,1.3676e-06
9.0000e+01,1.5171e-06
1.0000e+02,1.6601e-06
1.1000e+02,1.7962e-06
1.2000e+02,1.9253e-06
1.3000e+02,2.0473e-06
1.4000e+02,2.1622e-06
1.5000e+02,2.2700e-06
1.6000e+02,2.3709e-06
1.7000e+02,2.4651e-06
1.8000e+02,2.5529e-06
1.9000e+02,2.6344e-06
2.0000e+02,2.7100e-06
2.1000e+02,2.7800e-06
2.2000e+02,2.8446e-06
2.3000e+02,2.9043e-06
2.4000e+02,2.9593e-06
2.5000e+02,3.0100e-06
2.6000e+02,3.0566e-06
2.7000e+02,3.0994e-06
2.8000e+02,3.1387e-06
2.9000e+02,3.1748e-06
3.0000e+02,3.2080e-06
3.1000e+02,3.2384e-06
3.2000e+02,3.2663e-06
3.3000e+02,3.2919e-06
3.4000e+02,3.3153e-06
3.5000e+02,3.3368e-06
3.6000e+02,3.3566e-06
3.7000e+02,3.3746e-06
3.8000e+02,3.3912e-06
3.9000e+02,3.4064e-06
4.0000e+02,3.4204e-06
4.1000e+02,3.4332e-06
4.2000e+02,3.4450e-06
4.3000e+02,3.4558e-06
4.4000e+02,3.4658e-06
4.5000e+02,3.4750e-06
4.6000e+02,3.4834e-06
4.7000e+02,3.4912e-06
4.8000e+02,3.4985e-06
4.9000e+02,3.5052e-06
5.0000e+02,3.5114e-06
5.1000e+02,3.5172e-06
5.2000e+02,3.5226e-06
5.3000e+02,3.5276e-06
5.4000e+02,3.5324e-06
5.5000e+02,3.5368e-06
5.6000e+02,3.5411e-06
5.7000e+02,3.5451e-06
5.8000e+02,3.5489e-06
5.9000e+02,3.5526e-06
6.0000e+02,3.5561e-06
6.1000e+02,3.5595e-06
6.2000e+02,3.5628e-06
6.3000e+02,3.5660e-06
6.4000e+02,3.5691e-06
6.5000e+02,3.5722e-06
6.6000e+02,3.5752e-06
6.7000e+02,3.5782e-06
6.8000e+02,3.5812e-06
6.9000e+02,3.5842e-06
7.0000e+02,3.5872e-06
7.1000e+02,3.5902e-06
7.2000e+02,3.5933e-06
7.3000e+02,3.5964e-06
7.4000e+02,3.5996e-06
7.5000e+02,3.6027e-06
7.6000e+02,3.6060e-06
7.7000e+02,3.6092e-06
7.8000e+02,3.6124e-06
7.9000e+02,3.6156e-06
8.0000e+02,3.6188e-06
8.1000e+02,3.6219e-06
8.2000e+02,3.6250e-06
8.3000e+02,3.6278e-06
8.4000e+02,3.6306e-06
8.5000e+02,3.6331e-06
8.6000e+02,3.6354e-06
8.7000e+02,3.6375e-06
8.8000e+02,3.6392e-06
8.9000e+02,3.6407e-06
9.0000e+02,3.6418e-06
9.1000e+02,3.6426e-06
9.2000e+02,3.6430e-06
9.3000e+02,3.6431e-06
9.4000e+02,3.6428e-06
9.5000e+02,3.6422e-06
9.6000e+02,3.6412e-06
9.7000e+02,3.6400e-06
9.8000e+02,3.6385e-06
9.9000e+02,3.6368e-06
1.0000e+03,3.6350e-06
1.0100e+03,3.6329e-06
1.0200e+03,3.6308e-06
1.0300e+03,3.6287e-06
1.0400e+03,3.6266e-06
1.0500e+03,3.6245e-06
1.0600e+03,3.6226e-06
1.0700e+03,3.6208e-06
1.0800e+03,3.6192e-06
1.0900e+03,3.6179e-06
1.1000e+03,3.6168e-06
1.1100e+03,3.6160e-06
1.1200e+03,3.6155e-06
1.1300e+03,3.6154e-06
1.1400e+03,3.6155e-06
1.1500e+03,3.6161e-06
1.1600e+03,3.6169e-06
1.1700e+03,3.6181e-06
1.1800e+03,3.6197e-06
1.1900e+03,3.6215e-06
1.2000e+03,3.6236e-06
1.2100e+03,3.6259e-06
1.2200e+03,3.6284e-06
1.2300e+03,3.6312e-06
1.2400e+03,3.6340e-06
1.2500e+03,3.6370e-06
1.2600e+03,3.6401e-06
1.2700e+03,3.6432e-06
1.2800e+03,3.6463e-06
1.2900e+03,3.6495e-06
1.3000e+03,3.6525e-06
1.3100e+03,3.6555e-06
1.3200e+03,3.6584e-06
1.3300e+03,3.6611e-06
1.3400e+03,3.6637e-06
1.3500e+03,3.6662e-06
1.3600e+03,3.6685e-06
1.3700e+03,3.6707e-06
1.3800e+03,3.6726e-06
1.3900e+03,3.6744e-06
1.4000e+03,3.6760e-06
1.4100e+03,3.6774e-06
1.4200e+03,3.6787e-06
1.4300e+03,3.6798e-06
1.4400e+03,3.6807e-06
1.4500e+03,3.6814e-06
1.4600e+03,3.6820e-06
1.4700e+03,3.6824e-06
1.4800e+03,3.6826e-06
1.4900e+03,3.6827e-06
1.5000e+03,3.6826e-06
1.5100e+03,3.6823e-06
1.5200e+03,3.6819e-06
1.5300e+03,3.6814e-06
1.5400e+03,3.6807e-06
1.5500e+03,3.6798e-06
1.5600e+03,3.6788e-06
1.5700e+03,3.6776e-06
1.5800e+03,3.6763e-06
1.5900e+03,3.6748e-06
1.6000e+03,3.6732e-06
1.6100e+03,3.6714e-06
1.6200e+03,3.6695e-06
1.6300e+03,3.6674e-06
1.6400e+03,3.6652e-06
1.6500e+03,3.6628e-06
1.6600e+03,3.6602e-06
1.6700e+03,3.6576e-06
1.6800e+03,3.6548e-06
1.6900e+03,3.6518e-06
1.7000e+03,3.6487e-06
1.7100e+03,3.6455e-06
1.7200e+03,3.6422e-06
1.7300e+03,3.6389e-06
1.7400e+03,3.6354e-06
1.7500e+03,3.6318e-06
1.7600e+03,3.6282e-06
1.7700e+03,3.6246e-06
1.7800e+03,3.6210e-06
1.7900e+03,3.6173e-06
1.8000e+03,3.6137e-06
1.8100e+03,3.6102e-06
1.8200e+03,3.6067e-06
1.8300e+03,3.6033e-06
1.8400e+03,3.5999e-06
1.8500e+03,3.5967e-06
1.8600e+03,3.5937e-06
1.8700e+03,3.5907e-06
1.8800e+03,3.5880e-06
1.8900e+03,3.5853e-06
1.9000e+03,3.5828e-06
1.9100e+03,3.5805e-06
1.9200e+03,3.5782e-06
1.9300e+03,3.5761e-06
1.9400e+03,3.5742e-06
1.9500e+03,3.5723e-06
1.9600e+03,3.5705e-06
1.9700e+03,3.5687e-06
1.9800e+03,3.5670e-06
1.9900e+03,3.5653e-06
2.0000e+03,3.5636e-06
2.0100e+03,3.5618e-06
2.0200e+03,3.5600e-06
2.0300e+03,3.5581e-06
2.0400e+03,3.5561e-06
2.0500e+03,3.5541e-06
2.0600e+03,3.5518e-06
2.0700e+03,3.5495e-06
2.0800e+03,3.5469e-06
2.0900e+03,3.5443e-06
2.1000e+03,3.5414e-06
2.1100e+03,3.5384e-06
2.1200e+03,3.5352e-06
2.1300e+03,3.5319e-06
2.1400e+03,3.5285e-06
2.1500e+03,3.5249e-06
2.1600e+03,3.5212e-06
2.1700e+03,3.5175e-06
2.1800e+03,3.5138e-06
2.1900e+03,3.5101e-06
2.2000e+03,3.5064e-06
2.2100e+03,3.5028e-06
2.2200e+03,3.4994e-06
2.2300e+03,3.4960e-06
2.2400e+03,3.4929e-06
2.2500e+03,3.4900e-06
2.2600e+03,3.4874e-06
2.2700e+03,3.4850e-06
2.2800e+03,3.4829e-06
2.2900e+03,3.4811e-06
2.3000e+03,3.4796e-06
2.3100e+03,3.4783e-06
2.3200e+03,3.4774e-06
2.3300e+03,3.4767e-06
2.3400e+03,3.4763e-06
2.3500e+03,3.4762e-06
2.3600e+03,3.4762e-06
2.3700e+03,3.4765e-06
2.3800e+03,3.4769e-06
2.3900e+03,3.4775e-06
2.4000e+03,3.4782e-06
2.4100e+03,3.4790e-06
2.4200e+03,3.4799e-06
2.4300e+03,3.4809e-06
2.4400e+03,3.4819e-06
2.4500e+03,3.4830e-06
2.4600e+03,3.4841e-06
2.4700e+03,3.4851e-06
2.4800e+03,3.4862e-06
2.4900e+03,3.4872e-06
2.5000e+03,3.4882e-06
2.5100e+03,3.4892e-06
2.5200e+03,3.4901e-06
2.5300e+03,3.4909e-06
2.5400e+03,3.4917e-06
2.5500e+03,3.4924e-06
2.5600e+03,3.4930e-06
2.5700e+03,3.4935e-06
2.5800e+03,3.4939e-06
2.5900e+03,3.4942e-06
2.6000e+03,3.4944e-06
2.6100e+03,3.4946e-06
2.6200e+03,3.4946e-06
2.6300e+03,3.4945e-06
2.6400e+03,3.4943e-06
2.6500e+03,3.4941e-06
2.6600e+03,3.4937e-06
2.6700e+03,3.4932e-06
2.6800e+03,3.4927e-06
2.6900e+03,3.4921e-06
2.7000e+03,3.4913e-06
2.7100e+03,3.4905e-06
2.7200e+03,3.4897e-06
2.7300e+03,3.4887e-06
2.7400e+03,3.4878e-06
2.7500e+03,3.4867e-06
2.7600e+03,3.4856e-06
2.7700e+03,3.4844e-06
2.7800e+03,3.4832e-06
2.7900e+03,3.4820e-06
2.8000e+03,3.4807e-06
2.8100e+03,3.4794e-06
2.8200e+03,3.4781e-06
2.8300e+03,3.4767e-06
2.8400e+03,3.4752e-06
2.8500e+03,3.4738e-06
2.8600e+03,3.4722e-06
2.8700e+03,3.4707e-06
2.8800e+03,3.4691e-06
2.8900e+03,3.4674e-06
2.9000e+03,3.4657e-06
2.9100e+03,3.4639e-06
2.9200e+03,3.4621e-06
2.9300e+03,3.4602e-06
2.9400e+03,3.4583e-06
2.9500e+03,3.4563e-06
2.9600e+03,3.4543e-06
2.9700e+03,3.4522e-06
2.9800e+03,3.4501e-06
2.9900e+03,3.4480e-06
3.0000e+03,3.4459e-06
3.0100e+03,3.4439e-06
3.0200e+03,3.4419e-06
3.0300e+03,3.4400e-06
3.0400e+03,3.4382e-06
3.0500e+03,3.4365e-06
3.0600e+03,3.4349e-06
3.0700e+03,3.4336e-06
3.0800e+03,3.4324e-06
3.0900e+03,3.4315e-06
3.1000e+03,3.4307e-06
3.1100e+03,3.4302e-06
3.1200e+03,3.4300e-06
3.1300e+03,3.4300e-06
3.1400e+03,3.4302e-06
3.1500e+03,3.4307e-06
3.1600e+03,3.4314e-06
3.1700e+03,3.4323e-06
3.1800e+03,3.4334e-06
3.1900e+03,3.4347e-06
3.2000e+03,3.4362e-06
3.2100e+03,3.4378e-06
3.2200e+03,3.4395e-06
3.2300e+03,3.4413e-06
3.2400e+03,3.4432e-06
3.2500e+03,3.4451e-06
3.2600e+03,3.4470e-06
3.2700e+03,3.4490e-06
3.2800e+03,3.4510e-06
3.2900e+03,3.4529e-06
3.3000e+03,3.4548e-06
3.3100e+03,3.4567e-06
3.3200e+03,3.4586e-06
3.3300e+03,3.4604e-06
3.3400e+03,3.4621e-06
3.3500e+03,3.4638e-06
3.3600e+03,3.4655e-06
3.3700e+03,3.4671e-06
3.3800e+03,3.4686e-06
3.3900e+03,3.4700e-06
3.4000e+03,3.4714e-06
3.4100e+03,3.4727e-06
3.4200e+03,3.4739e-06
3.4300e+03,3.4751e-06
3.4400e+03,3.4761e-06
3.4500e+03,3.4771e-06
3.4600e+03,3.4779e-06
3.4700e+03,3.4787e-06
3.4800e+03,3.4793e-06
3.4900e+03,3.4798e-06
3.5000e+03,3.4803e-06
3.5100e+03,3.4806e-06
3.5200e+03,3.4807e-06
3.5300e+03,3.4808e-06
3.5400e+03,3.4808e-06
3.5500e+03,3.4806e-06
3.5600e+03,3.4803e-06
3.5700e+03,3.4800e-06
3.5800e+03,3.4795e-06
3.5900e+03,3.4790e-06
3.6000e+03,3.4783e-06
3.6100e+03,3.4776e-06
3.6200e+03,3.4768e-06
3.6300e+03,3.4760e-06
3.6400e+03,3.4750e-06
3.6500e+03,3.4740e-06
3.6600e+03,3.4730e-06
3.6700e+03,3.4718e-06
3.6800e+03,3.4707e-06
3.6900e+03,3.4694e-06
3.7000e+03,3.4681e-06
3.7100e+03,3.4667e-06
3.7200e+03,3.4653e-06
3.7300e+03,3.4638e-06
3.7400e+03,3.4622e-06
3.7500e+03,3.4606e-06
3.7600e+03,3.4590e-06
3.7700e+03,3.4573e-06
3.7800e+03,3.4555e-06
3.7900e+03,3.4537e-06
3.8000e+03,3.4518e-06
3.8100e+03,3.4499e-06
3.8200e+03,3.4480e-06
3.8300e+03,3.4460e-06
3.8400e+03,3.4440e-06
3.8500e+03,3.4419e-06
3.8600e+03,3.4398e-06
3.8700e+03,3.4376e-06
3.8800e+03,3.4355e-06
3.8900e+03,3.4333e-06
3.9000e+03,3.4311e-06
3.9100e+03,3.4288e-06
3.9200e+03,3.4266e-06
3.9300e+03,3.4243e-06
3.9400e+03,3.4221e-06
3.9500e+03,3.4198e-06
3.9600e+03,3.4176e-06
3.9700e+03,3.4154e-06
3.9800e+03,3.4132e-06
3.9900e+03,3.4111e-06
4.0000e+03,3.4091e-06
4.0100e+03,3.4071e-06
4.0200e+03,3.4052e-06
4.0300e+03,3.4033e-06
4.0400e+03,3.4015e-06
4.0500e+03,3.3999e-06
4.0600e+03,3.3983e-06
4.0700e+03,3.3968e-06
4.0800e+03,3.3954e-06
4.0900e+03,3.3942e-06
4.1000e+03,3.3930e-06
4.1100e+03,3.3919e-06
4.1200e+03,3.3909e-06
4.1300e+03,3.3901e-06
4.1400e+03,3.3893e-06
4.1500e+03,3.3886e-06
4.1600e+03,3.3880e-06
4.1700e+03,3.3874e-06
4.1800e+03,3.3870e-06
4.1900e+03,3.3865e-06
4.2000e+03,3.3862e-06
4.2100e+03,3.3859e-06
4.2200e+03,3.3856e-06
4.2300e+03,3.3854e-06
4.2400e+03,3.3852e-06
4.2500e+03,3.3850e-06
4.2600e+03,3.3849e-06
4.2700e+03,3.3847e-06
4.2800e+03,3.3846e-06
4.2900e+03,3.3845e-06
4.3000e+03,3.3844e-06
4.3100e+03,3.3843e-06
4.3200e+03,3.3841e-06
4.3300e+03,3.3840e-06
4.3400e+03,3.3839e-06
4.3500e+03,3.3838e-06
4.3600e+03,3.3837e-06
4.3700e+03,3.3835e-06
4.3800e+03,3.3834e-06
4.3900e+03,3.3833e-06
4.4000e+03,3.3831e-06
4.4100e+03,3.3830e-06
4.4200e+03,3.3829e-06
4.4300e+03,3.3827e-06
4.4400e+03,3.3826e-06
4.4500e+03,3.3825e-06
4.4600e+03,3.3824e-06
4.4700e+03,3.3822e-06
4.4800e+03,3.3821e-06
4.4900e+03,3.3821e-06
4.5000e+03,3.3820e-06
4.5100e+03,3.3819e-06
4.5200e+03,3.3818e-06
4.5300e+03,3.3818e-06
4.5400e+03,3.3818e-06
4.5500e+03,3.3817e-06
4.5600e+03,3.3817e-06
4.5700e+03,3.3817e-06
4.5800e+03,3.3817e-06
4.5900e+03,3.3817e-06
4.6000e+03,3.3817e-06
4.6100e+03,3.3817e-06
4.6200e+03,3.3818e-06
4.6300e+03,3.3818e-06
4.6400e+03,3.3817e-06
4.6500e+03,3.3817e-06
4.6600e+03,3.3817e-06
4.6700e+03,3.3816e-06
4.6800e+03,3.3815e-06
4.6900e+03,3.3814e-06
4.7000e+03,3.3813e-06
4.7100e+03,3.3811e-06
4.7200e+03,3.3809e-06
4.7300e+03,3.3806e-06
4.7400e+03,3.3803e-06
4.7500e+03,3.3799e-06
4.7600e+03,3.3795e-06
4.7700e+03,3.3790e-06
4.7800e+03,3.3785e-06
4.7900e+03,3.3779e-06
4.8000e+03,3.3773e-06
4.8100e+03,3.3766e-06
4.8200e+03,3.3759e-06
4.8300e+03,3.3750e-06
4.8400e+03,3.3742e-06
4.8500e+03,3.3732e-06
4.8600e+03,3.3722e-06
4.8700e+03,3.3711e-06
4.8800e+03,3.3700e-06
4.8900e+03,3.3688e-06
4.9000e+03,3.3675e-06
4.9100e+03,3.3662e-06
4.9200e+03,3.3648e-06
4.9300e+03,3.3633e-06
4.9400e+03,3.3618e-06
4.9500e+03,3.3603e-06
4.9600e+03,3.3587e-06
4.9700e+03,3.3571e-06
4.9800e+03,3.3554e-06
4.9900e+03,3.3538e-06
5.0000e+03,3.3521e-06
5.0100e+03,3.3504e-06
5.0200e+03,3.3487e-06
5.0300e+03,3.3470e-06
5.0400e+03,3.3452e-06
5.0500e+03,3.3435e-06
5.0600e+03,3.3417e-06
5.0700e+03,3.3399e-06
5.0800e+03,3.3381e-06
5.0900e+03,3.3362e-06
5.1000e+03,3.3342e-06
5.1100e+03,3.3321e-06
5.1200e+03,3.3299e-06
5.1300e+03,3.3276e-06
5.1400e+03,3.3251e-06
5.1500e+03,3.3224e-06
5.1600e+03,3.3196e-06
5.1700e+03,3.3166e-06
5.1800e+03,3.3135e-06
5.1900e+03,3.3101e-06
5.2000e+03,3.3066e-06
5.2100e+03,3.3030e-06
5.2200e+03,3.2993e-06
5.2300e+03,3.2955e-06
5.2400e+03,3.2917e-06
5.2500e+03,3.2878e-06
5.2600e+03,3.2840e-06
5.2700e+03,3.2803e-06
5.2800e+03,3.2768e-06
5.2900e+03,3.2733e-06
5.3000e+03,3.2701e-06
5.3100e+03,3.2671e-06
5.3200e+03,3.2643e-06
5.3300e+03,3.2619e-06
5.3400e+03,3.2596e-06
5.3500e+03,3.2577e-06
5.3600e+03,3.2561e-06
5.3700e+03,3.2548e-06
5.3800e+03,3.2537e-06
5.3900e+03,3.2530e-06
5.4000e+03,3.2524e-06
5.4100e+03,3.2521e-06
5.4200e+03,3.2519e-06
5.4300e+03,3.2519e-06
5.4400e+03,3.2520e-06
5.4500e+03,3.2522e-06
5.4600e+03,3.2525e-06
5.4700e+03,3.2527e-06
5.4800e+03,3.2530e-06
5.4900e+03,3.2532e-06
5.5000e+03,3.2534e-06
5.5100e+03,3.2535e-06
5.5200e+03,3.2536e-06
5.5300e+03,3.2536e-06
5.5400e+03,3.2536e-06
5.5500e+03,3.2536e-06
5.5600e+03,3.2534e-06
5.5700e+03,3.2533e-06
5.5800e+03,3.2532e-06
5.5900e+03,3.2531e-06
5.6000e+03,3.2529e-06
5.6100e+03,3.2528e-06
5.6200e+03,3.2528e-06
5.6300e+03,3.2528e-06
5.6400e+03,3.2528e-06
5.6500e+03,3.2529e-06
5.6600e+03,3.2530e-06
5.6700e+03,3.2532e-06
5.6800e+03,3.2534e-06
5.6900e+03,3.2537e-06
5.7000e+03,3.2540e-06
5.7100e+03,3.2544e-06
5.7200e+03,3.2548e-06
5.7300e+03,3.2554e-06
5.7400e+03,3.2560e-06
5.7500e+03,3.2566e-06
5.7600e+03,3.2574e-06
5.7700e+03,3.2582e-06
5.7800e+03,3.2591e-06
5.7900e+03,3.2600e-06
5.8000e+03,3.2610e-06
5.8100e+03,3.2620e-06
5.8200e+03,3.2630e-06
5.8300e+03,3.2639e-06
5.8400e+03,3.2648e-06
5.8500e+03,3.2656e-06
5.8600e+03,3.2663e-06
5.8700e+03,3.2668e-06
5.8800e+03,3.2672e-06
5.8900e+03,3.2672e-06
5.9000e+03,3.2670e-06
5.9100e+03,3.2666e-06
5.9200e+03,3.2658e-06
5.9300e+03,3.2646e-06
5.9400e+03,3.2632e-06
5.9500e+03,3.2615e-06
5.9600e+03,3.2594e-06
5.9700e+03,3.2571e-06
5.9800e+03,3.2545e-06
5.9900e+03,3.2517e-06
6.0000e+03,3.2487e-06
6.0100e+03,3.2457e-06
6.0200e+03,3.2426e-06
6.0300e+03,3.2395e-06
6.0400e+03,3.2365e-06
6.0500e+03,3.2336e-06
6.0600e+03,3.2309e-06
6.0700e+03,3.2285e-06
6.0800e+03,3.2264e-06
6.0900e+03,3.2246e-06
6.1000e+03,3.2231e-06
6.1100e+03,3.2220e-06
6.1200e+03,3.2213e-06
6.1300e+03,3.2210e-06
6.1400e+03,3.2210e-06
6.1500e+03,3.2214e-06
6.1600e+03,3.2221e-06
6.1700e+03,3.2230e-06
6.1800e+03,3.2241e-06
6.1900e+03,3.2254e-06
6.2000e+03,3.2269e-06
6.2100e+03,3.2284e-06
6.2200e+03,3.2298e-06
6.2300e+03,3.2313e-06
6.2400e+03,3.2327e-06
6.2500e+03,3.2339e-06
6.2600e+03,3.2350e-06
6.2700e+03,3.2358e-06
6.2800e+03,3.2365e-06
6.2900e+03,3.2370e-06
6.3000e+03,3.2372e-06
6.3100e+03,3.2372e-06
6.3200e+03,3.2370e-06
6.3300e+03,3.2366e-06
6.3400e+03,3.2361e-06
6.3500e+03,3.2353e-06
6.3600e+03,3.2345e-06
6.3700e+03,3.2336e-06
6.3800e+03,3.2326e-06
6.3900e+03,3.2316e-06
6.4000e+03,3.2305e-06
6.4100e+03,3.2295e-06
6.4200e+03,3.2286e-06
6.4300e+03,3.2277e-06
6.4400e+03,3.2269e-06
6.4500e+03,3.2262e-06
6.4600e+03,3.2256e-06
6.4700e+03,3.2251e-06
6.4800e+03,3.2247e-06
6.4900e+03,3.2245e-06
6.5000e+03,3.2243e-06
6.5100e+03,3.2243e-06
6.5200e+03,3.2244e-06
6.5300e+03,3.2246e-06
6.5400e+03,3.2249e-06
6.5500e+03,3.2253e-06
6.5600e+03,3.2257e-06
6.5700e+03,3.2261e-06
6.5800e+03,3.2265e-06
6.5900e+03,3.2270e-06
6.6000e+03,3.2274e-06
6.6100e+03,3.2278e-06
6.6200e+03,3.2281e-06
6.6300e+03,3.2284e-06
6.6400e+03,3.2286e-06
6.6500e+03,3.2287e-06
6.6600e+03,3.2287e-06
6.6700e+03,3.2286e-06
6.6800e+03,3.2284e-06
6.6900e+03,3.2281e-06
6.7000e+03,3.2276e-06
6.7100e+03,3.2270e-06
6.7200e+03,3.2262e-06
6.7300e+03,3.2253e-06
6.7400e+03,3.2242e-06
6.7500e+03,3.2230e-06
6.7600e+03,3.2216e-06
6.7700e+03,3.2200e-06
6.7800e+03,3.2182e-06
6.7900e+03,3.2162e-06
6.8000e+03,3.2140e-06
6.8100e+03,3.2116e-06
6.8200e+03,3.2089e-06
6.8300e+03,3.2060e-06
6.8400e+03,3.2027e-06
6.8500e+03,3.1993e-06
6.8600e+03,3.1955e-06
6.8700e+03,3.1914e-06
6.8800e+03,3.1869e-06
6.8900e+03,3.1822e-06
6.9000e+03,3.1771e-06
6.9100e+03,3.1718e-06
6.9200e+03,3.1661e-06
6.9300e+03,3.1602e-06
6.9400e+03,3.1540e-06
6.9500e+03,3.1477e-06
6.9600e+03,3.1412e-06
6.9700e+03,3.1346e-06
6.9800e+03,3.1279e-06
6.9900e+03,3.1213e-06
7.0000e+03,3.1147e-06
7.0100e+03,3.1083e-06
7.0200e+03,3.1021e-06
7.0300e+03,3.0962e-06
7.0400e+03,3.0906e-06
7.0500e+03,3.0855e-06
7.0600e+03,3.0808e-06
7.0700e+03,3.0767e-06
7.0800e+03,3.0732e-06
7.0900e+03,3.0703e-06
7.1000e+03,3.0681e-06
7.1100e+03,3.0666e-06
7.1200e+03,3.0658e-06
7.1300e+03,3.0657e-06
7.1400e+03,3.0664e-06
7.1500e+03,3.0678e-06
7.1600e+03,3.0699e-06
7.1700e+03,3.0728e-06
7.1800e+03,3.0763e-06
7.1900e+03,3.0805e-06
7.2000e+03,3.0853e-06
7.2100e+03,3.0907e-06
7.2200e+03,3.0967e-06
7.2300e+03,3.1031e-06
7.2400e+03,3.1099e-06
7.2500e+03,3.1172e-06
7.2600e+03,3.1247e-06
7.2700e+03,3.1325e-06
7.2800e+03,3.1405e-06
7.2900e+03,3.1486e-06
7.3000e+03,3.1569e-06
7.3100e+03,3.1651e-06
7.3200e+03,3.1733e-06
7.3300e+03,3.1814e-06
7.3400e+03,3.1894e-06
7.3500e+03,3.1971e-06
7.3600e+03,3.2046e-06
7.3700e+03,3.2118e-06
7.3800e+03,3.2187e-06
7.3900e+03,3.2252e-06
7.4000e+03,3.2312e-06
7.4100e+03,3.2367e-06
7.4200e+03,3.2418e-06
7.4300e+03,3.2463e-06
7.4400e+03,3.2503e-06
7.4500e+03,3.2537e-06
7.4600e+03,3.2564e-06
7.4700e+03,3.2586e-06
7.4800e+03,3.2602e-06
7.4900e+03,3.2612e-06
7.5000e+03,3.2615e-06
7.5100e+03,3.2612e-06
7.5200e+03,3.2604e-06
7.5300e+03,3.2590e-06
7.5400e+03,3.2570e-06
7.5500e+03,3.2546e-06
7.5600e+03,3.2516e-06
7.5700e+03,3.2482e-06
7.5800e+03,3.2444e-06
7.5900e+03,3.2402e-06
7.6000e+03,3.2357e-06
7.6100e+03,3.2309e-06
7.6200e+03,3.2258e-06
7.6300e+03,3.2205e-06
7.6400e+03,3.2151e-06
7.6500e+03,3.2094e-06
7.6600e+03,3.2037e-06
7.6700e+03,3.1979e-06
7.6800e+03,3.1920e-06
7.6900e+03,3.1861e-06
7.7000e+03,3.1801e-06
7.7100e+03,3.1742e-06
7.7200e+03,3.1682e-06
7.7300e+03,3.1623e-06
7.7400e+03,3.1565e-06
7.7500e+03,3.1506e-06
7.7600e+03,3.1448e-06
7.7700e+03,3.1391e-06
7.7800e+03,3.1334e-06
7.7900e+03,3.1277e-06
7.8000e+03,3.1221e-06
7.8100e+03,3.1165e-06
7.8200e+03,3.1110e-06
7.8300e+03,3.1055e-06
7.8400e+03,3.1001e-06
7.8500e+03,3.0947e-06
7.8600e+03,3.0893e-06
7.8700e+03,3.0840e-06
7.8800e+03,3.0788e-06
7.8900e+03,3.0736e-06
7.9000e+03,3.0684e-06
7.9100e+03,3.0633e-06
7.9200e+03,3.0583e-06
7.9300e+03,3.0535e-06
7.9400e+03,3.0487e-06
7.9500e+03,3.0440e-06
7.9600e+03,3.0394e-06
7.9700e+03,3.0350e-06
7.9800e+03,3.0308e-06
7.9900e+03,3.0268e-06
8.0000e+03,3.0229e-06
8.0100e+03,3.0193e-06
8.0200e+03,3.0158e-06
8.0300e+03,3.0126e-06
8.0400e+03,3.0097e-06
8.0500e+03,3.0070e-06
8.0600e+03,3.0045e-06
8.0700e+03,3.0023e-06
8.0800e+03,3.0003e-06
8.0900e+03,2.9987e-06
8.1000e+03,2.9972e-06
8.1100e+03,2.9960e-06
8.1200e+03,2.9951e-06
8.1300e+03,2.9943e-06
8.1400e+03,2.9938e-06
8.1500e+03,2.9935e-06
8.1600e+03,2.9934e-06
8.1700e+03,2.9934e-06
8.1800e+03,2.9936e-06
8.1900e+03,2.9940e-06
8.2000e+03,2.9944e-06
8.2100e+03,2.9950e-06
8.2200e+03,2.9956e-06
8.2300e+03,2.9962e-06
8.2400e+03,2.9968e-06
8.2500e+03,2.9974e-06
8.2600e+03,2.9979e-06
8.2700e+03,2.9984e-06
8.2800e+03,2.9987e-06
8.2900e+03,2.9988e-06
8.3000e+03,2.9988e-06
8.3100e+03,2.9985e-06
8.3200e+03,2.9980e-06
8.3300e+03,2.9972e-06
8.3400e+03,2.9960e-06
8.3500e+03,2.9946e-06
8.3600e+03,2.9928e-06
8.3700e+03,2.9906e-06
8.3800e+03,2.9880e-06
8.3900e+03,2.9850e-06
8.4000e+03,2.9816e-06
8.4100e+03,2.9779e-06
8.4200e+03,2.9737e-06
8.4300e+03,2.9692e-06
8.4400e+03,2.9643e-06
8.4500e+03,2.9591e-06
8.4600e+03,2.9535e-06
8.4700e+03,2.9477e-06
8.4800e+03,2.9416e-06
8.4900e+03,2.9352e-06
8.5000e+03,2.9287e-06
8.5100e+03,2.9219e-06
8.5200e+03,2.9151e-06
8.5300e+03,2.9080e-06
8.5400e+03,2.9010e-06
8.5500e+03,2.8938e-06
8.5600e+03,2.8867e-06
8.5700e+03,2.8795e-06
8.5800e+03,2.8724e-06
8.5900e+03,2.8654e-06
8.6000e+03,2.8584e-06
8.6100e+03,2.8516e-06
8.6200e+03,2.8450e-06
8.6300e+03,2.8386e-06
8.6400e+03,2.8324e-06
8.6500e+03,2.8264e-06
8.6600e+03,2.8207e-06
8.6700e+03,2.8153e-06
8.6800e+03,2.8103e-06
8.6900e+03,2.8055e-06
8.7000e+03,2.8010e-06
8.7100e+03,2.7969e-06
8.7200e+03,2.7930e-06
8.7300e+03,2.7895e-06
8.7400e+03,2.7863e-06
8.7500e+03,2.7834e-06
8.7600e+03,2.7807e-06
8.7700e+03,2.7783e-06
8.7800e+03,2.7761e-06
8.7900e+03,2.7742e-06
8.8000e+03,2.7725e-06
8.8100e+03,2.7710e-06
8.8200e+03,2.7698e-06
8.8300e+03,2.7688e-06
8.8400e+03,2.7680e-06
8.8500e+03,2.7675e-06
8.8600e+03,2.7674e-06
8.8700e+03,2.7675e-06
8.8800e+03,2.7681e-06
8.8900e+03,2.7690e-06
8.9000e+03,2.7704e-06
8.9100e+03,2.7724e-06
8.9200e+03,2.7749e-06
8.9300e+03,2.7779e-06
8.9400e+03,2.7817e-06
8.9500e+03,2.7862e-06
8.9600e+03,2.7914e-06
8.9700e+03,2.7975e-06
8.9800e+03,2.8044e-06
8.9900e+03,2.8122e-06
9.0000e+03,2.8209e-06
9.0100e+03,2.8306e-06
9.0200e+03,2.8413e-06
9.0300e+03,2.8530e-06
9.0400e+03,2.8657e-06
9.0500e+03,2.8795e-06
9.0600e+03,2.8944e-06
9.0700e+03,2.9103e-06
