# Time , Side-Flux
0.0000e+00,0.0000e+00
1.0000e+01,1.5330e-05
2.0000e+01,2.6984e-05
3.0000e+01,3.3768e-05
4.0000e+01,3.6637e-05
5.0000e+01,3.7186e-05
6.0000e+01,3.6714e-05
7.0000e+01,3.6007e-05
8.0000e+01,3.5425e-05
9.0000e+01,3.5062e-05
1.0000e+02,3.4888e-05
1.1000e+02,3.4834e-05
1.2000e+02,3.4841e-05
1.3000e+02,3.4866e-05
1.4000e+02,3.4890e-05
1.5000e+02,3.4907e-05
1.6000e+02,3.4916e-05
1.7000e+02,3.4921e-05
1.8000e+02,3.4923e-05
1.9000e+02,3.4925e-05
2.0000e+02,3.4926e-05
2.1000e+02,3.4927e-05
2.2000e+02,3.4929e-05
2.3000e+02,3.4931e-05
2.4000e+02,3.4933e-05
2.5000e+02,3.4935e-05
2.6000e+02,3.4936e-05
2.7000e+02,3.4936e-05
2.8000e+02,3.4936e-05
2.9000e+02,3.4935e-05
3.0000e+02,3.4934e-05
3.1000e+02,3.4935e-05
3.2000e+02,3.4935e-05
3.3000e+02,3.4930e-05
3.4000e+02,3.4921e-05
3.5000e+02,3.4913e-05
3.6000e+02,3.4906e-05
3.7000e+02,3.4894e-05
3.8000e+02,3.4869e-05
3.9000e+02,3.4830e-05
4.0000e+02,3.4784e-05
4.1000e+02,3.4739e-05
4.2000e+02,3.4695e-05
4.3000e+02,3.4652e-05
4.4000e+02,3.4608e-05
4.5000e+02,3.4567e-05
4.6000e+02,3.4535e-05
4.7000e+02,3.4517e-05
4.8000e+02,3.4513e-05
4.9000e+02,3.4518e-05
5.0000e+02,3.4527e-05
5.1000e+02,3.4535e-05
5.2000e+02,3.4540e-05
5.3000e+02,3.4543e-05
5.4000e+02,3.4544e-05
5.5000e+02,3.4544e-05
5.6000e+02,3.4542e-05
5.7000e+02,3.4534e-05
5.8000e+02,3.4518e-05
5.9000e+02,3.4485e-05
6.0000e+02,3.4429e-05
6.1000e+02,3.4344e-05
6.2000e+02,3.4247e-05
6.3000e+02,3.4164e-05
6.4000e+02,3.4109e-05
6.5000e+02,3.4061e-05
6.6000e+02,3.3982e-05
6.7000e+02,3.3863e-05
6.8000e+02,3.3746e-05
6.9000e+02,3.3696e-05
7.0000e+02,3.3745e-05
7.1000e+02,3.3856e-05
7.2000e+02,3.3957e-05
7.3000e+02,3.3993e-05
7.4000e+02,3.3956e-05
7.5000e+02,3.3891e-05
7.6000e+02,3.3850e-05
7.7000e+02,3.3857e-05
7.8000e+02,3.3902e-05
7.9000e+02,3.3947e-05
8.0000e+02,3.3933e-05
8.1000e+02,3.3817e-05
8.2000e+02,3.3604e-05
8.3000e+02,3.3346e-05
8.4000e+02,3.3127e-05
8.5000e+02,3.3023e-05
8.6000e+02,3.3059e-05
8.7000e+02,3.3182e-05
8.8000e+02,3.3301e-05
8.9000e+02,3.3353e-05
9.0000e+02,3.3312e-05
9.1000e+02,3.3175e-05
9.2000e+02,3.2944e-05
9.3000e+02,3.2652e-05
9.4000e+02,3.2359e-05
9.5000e+02,3.2121e-05
9.6000e+02,3.1963e-05
9.7000e+02,3.1871e-05
9.8000e+02,3.1835e-05
9.9000e+02,3.1857e-05
1.0000e+03,3.1920e-05
1.0100e+03,3.1981e-05
1.0200e+03,3.1973e-05
1.0300e+03,3.1831e-05
1.0400e+03,3.1543e-05
1.0500e+03,3.1168e-05
1.0600e+03,3.0794e-05
1.0700e+03,3.0482e-05
1.0800e+03,3.0251e-05
1.0900e+03,3.0080e-05
1.1000e+03,2.9956e-05
1.1100e+03,2.9922e-05
1.1200e+03,3.0020e-05
1.1300e+03,3.0213e-05
1.1400e+03,3.0419e-05
1.1500e+03,3.0579e-05
1.1600e+03,3.0677e-05
1.1700e+03,3.0721e-05
1.1800e+03,3.0719e-05
1.1900e+03,3.0688e-05
1.2000e+03,3.0649e-05
1.2100e+03,3.0611e-05
1.2200e+03,3.0573e-05
1.2300e+03,3.0519e-05
1.2400e+03,3.0433e-05
1.2500e+03,3.0308e-05
1.2600e+03,3.0175e-05
1.2700e+03,3.0086e-05
1.2800e+03,3.0083e-05
1.2900e+03,3.0157e-05
1.3000e+03,3.0261e-05
1.3100e+03,3.0343e-05
1.3200e+03,3.0376e-05
1.3300e+03,3.0350e-05
1.3400e+03,3.0268e-05
1.3500e+03,3.0133e-05
1.3600e+03,2.9960e-05
1.3700e+03,2.9792e-05
1.3800e+03,2.9673e-05
1.3900e+03,2.9625e-05
1.4000e+03,2.9635e-05
1.4100e+03,2.9678e-05
1.4200e+03,2.9720e-05
1.4300e+03,2.9740e-05
1.4400e+03,2.9735e-05
1.4500e+03,2.9717e-05
1.4600e+03,2.9699e-05
1.4700e+03,2.9689e-05
1.4800e+03,2.9686e-05
1.4900e+03,2.9688e-05
1.5000e+03,2.9691e-05
1.5100e+03,2.9693e-05
1.5200e+03,2.9691e-05
1.5300e+03,2.9683e-05
1.5400e+03,2.9670e-05
1.5500e+03,2.9653e-05
1.5600e+03,2.9634e-05
1.5700e+03,2.9616e-05
1.5800e+03,2.9602e-05
1.5900e+03,2.9594e-05
1.6000e+03,2.9587e-05
1.6100e+03,2.9569e-05
1.6200e+03,2.9519e-05
1.6300e+03,2.9425e-05
1.6400e+03,2.9287e-05
1.6500e+03,2.9131e-05
1.6600e+03,2.8996e-05
1.6700e+03,2.8916e-05
1.6800e+03,2.8912e-05
1.6900e+03,2.8977e-05
1.7000e+03,2.9072e-05
1.7100e+03,2.9141e-05
1.7200e+03,2.9154e-05
1.7300e+03,2.9117e-05
1.7400e+03,2.9055e-05
1.7500e+03,2.8994e-05
1.7600e+03,2.8961e-05
1.7700e+03,2.8964e-05
1.7800e+03,2.8993e-05
1.7900e+03,2.9027e-05
1.8000e+03,2.9042e-05
1.8100e+03,2.9011e-05
1.8200e+03,2.8922e-05
1.8300e+03,2.8783e-05
1.8400e+03,2.8611e-05
1.8500e+03,2.8438e-05
1.8600e+03,2.8313e-05
1.8700e+03,2.8272e-05
1.8800e+03,2.8310e-05
1.8900e+03,2.8396e-05
1.9000e+03,2.8491e-05
1.9100e+03,2.8572e-05
1.9200e+03,2.8622e-05
1.9300e+03,2.8630e-05
1.9400e+03,2.8591e-05
1.9500e+03,2.8519e-05
1.9600e+03,2.8436e-05
1.9700e+03,2.8352e-05
1.9800e+03,2.8260e-05
1.9900e+03,2.8153e-05
2.0000e+03,2.8033e-05
2.0100e+03,2.7897e-05
2.0200e+03,2.7755e-05
2.0300e+03,2.7640e-05
2.0400e+03,2.7592e-05
2.0500e+03,2.7617e-05
2.0600e+03,2.7690e-05
2.0700e+03,2.7787e-05
2.0800e+03,2.7887e-05
2.0900e+03,2.7954e-05
2.1000e+03,2.7952e-05
2.1100e+03,2.7887e-05
2.1200e+03,2.7798e-05
2.1300e+03,2.7704e-05
2.1400e+03,2.7592e-05
2.1500e+03,2.7461e-05
2.1600e+03,2.7349e-05
2.1700e+03,2.7291e-05
2.1800e+03,2.7277e-05
2.1900e+03,2.7276e-05
2.2000e+03,2.7283e-05
2.2100e+03,2.7323e-05
2.2200e+03,2.7405e-05
2.2300e+03,2.7503e-05
2.2400e+03,2.7574e-05
2.2500e+03,2.7580e-05
2.2600e+03,2.7508e-05
2.2700e+03,2.7380e-05
2.2800e+03,2.7253e-05
2.2900e+03,2.7173e-05
2.3000e+03,2.7137e-05
2.3100e+03,2.7099e-05
2.3200e+03,2.7030e-05
2.3300e+03,2.6930e-05
2.3400e+03,2.6824e-05
2.3500e+03,2.6747e-05
2.3600e+03,2.6723e-05
2.3700e+03,2.6747e-05
2.3800e+03,2.6791e-05
2.3900e+03,2.6834e-05
2.4000e+03,2.6872e-05
2.4100e+03,2.6910e-05
2.4200e+03,2.6939e-05
2.4300e+03,2.6946e-05
2.4400e+03,2.6927e-05
2.4500e+03,2.6895e-05
2.4600e+03,2.6859e-05
2.4700e+03,2.6825e-05
2.4800e+03,2.6795e-05
2.4900e+03,2.6777e-05
2.5000e+03,2.6777e-05
2.5100e+03,2.6790e-05
2.5200e+03,2.6807e-05
2.5300e+03,2.6819e-05
2.5400e+03,2.6820e-05
2.5500e+03,2.6806e-05
2.5600e+03,2.6774e-05
2.5700e+03,2.6724e-05
2.5800e+03,2.6658e-05
2.5900e+03,2.6580e-05
2.6000e+03,2.6499e-05
2.6100e+03,2.6425e-05
2.6200e+03,2.6369e-05
2.6300e+03,2.6342e-05
2.6400e+03,2.6349e-05
2.6500e+03,2.6387e-05
2.6600e+03,2.6440e-05
2.6700e+03,2.6486e-05
2.6800e+03,2.6508e-05
2.6900e+03,2.6516e-05
2.7000e+03,2.6525e-05
2.7100e+03,2.6527e-05
2.7200e+03,2.6490e-05
2.7300e+03,2.6383e-05
2.7400e+03,2.6214e-05
2.7500e+03,2.6030e-05
2.7600e+03,2.5886e-05
2.7700e+03,2.5800e-05
2.7800e+03,2.5766e-05
2.7900e+03,2.5767e-05
2.8000e+03,2.5786e-05
2.8100e+03,2.5823e-05
2.8200e+03,2.5886e-05
2.8300e+03,2.5970e-05
2.8400e+03,2.6050e-05
2.8500e+03,2.6098e-05
2.8600e+03,2.6111e-05
2.8700e+03,2.6109e-05
2.8800e+03,2.6107e-05
2.8900e+03,2.6085e-05
2.9000e+03,2.5996e-05
2.9100e+03,2.5817e-05
2.9200e+03,2.5578e-05
2.9300e+03,2.5366e-05
2.9400e+03,2.5257e-05
2.9500e+03,2.5281e-05
2.9600e+03,2.5423e-05
2.9700e+03,2.5657e-05
2.9800e+03,2.5944e-05
2.9900e+03,2.6201e-05
3.0000e+03,2.6324e-05
3.0100e+03,2.6255e-05
3.0200e+03,2.6038e-05
3.0300e+03,2.5771e-05
3.0400e+03,2.5528e-05
3.0500e+03,2.5331e-05
3.0600e+03,2.5178e-05
3.0700e+03,2.5063e-05
3.0800e+03,2.4951e-05
3.0900e+03,2.4764e-05
3.1000e+03,2.4425e-05
3.1100e+03,2.3914e-05
3.1200e+03,2.3293e-05
3.1300e+03,2.2683e-05
3.1400e+03,2.2201e-05
3.1500e+03,2.1903e-05
3.1600e+03,2.1774e-05
3.1700e+03,2.1763e-05
3.1800e+03,2.1833e-05
3.1900e+03,2.1981e-05
3.2000e+03,2.2196e-05
3.2100e+03,2.2436e-05
3.2200e+03,2.2652e-05
3.2300e+03,2.2820e-05
3.2400e+03,2.2946e-05
3.2500e+03,2.3031e-05
3.2600e+03,2.3058e-05
3.2700e+03,2.3016e-05
3.2800e+03,2.2924e-05
3.2900e+03,2.2810e-05
3.3000e+03,2.2694e-05
3.3100e+03,2.2581e-05
3.3200e+03,2.2473e-05
3.3300e+03,2.2376e-05
3.3400e+03,2.2301e-05
3.3500e+03,2.2258e-05
3.3600e+03,2.2257e-05
3.3700e+03,2.2302e-05
3.3800e+03,2.2375e-05
3.3900e+03,2.2457e-05
3.4000e+03,2.2540e-05
3.4100e+03,2.2623e-05
3.4200e+03,2.2713e-05
3.4300e+03,2.2820e-05
3.4400e+03,2.2951e-05
3.4500e+03,2.3110e-05
3.4600e+03,2.3298e-05
3.4700e+03,2.3499e-05
3.4800e+03,2.3663e-05
3.4900e+03,2.3717e-05
3.5000e+03,2.3623e-05
3.5100e+03,2.3427e-05
3.5200e+03,2.3227e-05
3.5300e+03,2.3096e-05
3.5400e+03,2.3030e-05
3.5500e+03,2.2990e-05
3.5600e+03,2.2946e-05
3.5700e+03,2.2899e-05
3.5800e+03,2.2857e-05
3.5900e+03,2.2823e-05
3.6000e+03,2.2794e-05
3.6100e+03,2.2766e-05
3.6200e+03,2.2736e-05
3.6300e+03,2.2702e-05
3.6400e+03,2.2657e-05
3.6500e+03,2.2594e-05
3.6600e+03,2.2509e-05
3.6700e+03,2.2405e-05
3.6800e+03,2.2296e-05
3.6900e+03,2.2201e-05
3.7000e+03,2.2141e-05
3.7100e+03,2.2123e-05
3.7200e+03,2.2130e-05
3.7300e+03,2.2135e-05
3.7400e+03,2.2124e-05
3.7500e+03,2.2104e-05
3.7600e+03,2.2091e-05
3.7700e+03,2.2101e-05
3.7800e+03,2.2139e-05
3.7900e+03,2.2188e-05
3.8000e+03,2.2221e-05
3.8100e+03,2.2229e-05
3.8200e+03,2.2227e-05
3.8300e+03,2.2225e-05
3.8400e+03,2.2211e-05
3.8500e+03,2.2171e-05
3.8600e+03,2.2105e-05
3.8700e+03,2.2029e-05
3.8800e+03,2.1952e-05
3.8900e+03,2.1863e-05
3.9000e+03,2.1737e-05
3.9100e+03,2.1567e-05
3.9200e+03,2.1389e-05
3.9300e+03,2.1283e-05
3.9400e+03,2.1333e-05
3.9500e+03,2.1560e-05
3.9600e+03,2.1911e-05
3.9700e+03,2.2306e-05
3.9800e+03,2.2699e-05
3.9900e+03,2.3078e-05
4.0000e+03,2.3403e-05
4.0100e+03,2.3591e-05
4.0200e+03,2.3588e-05
4.0300e+03,2.3430e-05
4.0400e+03,2.3214e-05
4.0500e+03,2.3034e-05
4.0600e+03,2.2939e-05
4.0700e+03,2.2956e-05
4.0800e+03,2.3097e-05
4.0900e+03,2.3344e-05
4.1000e+03,2.3653e-05
4.1100e+03,2.3991e-05
4.1200e+03,2.4361e-05
4.1300e+03,2.4761e-05
4.1400e+03,2.5131e-05
4.1500e+03,2.5380e-05
4.1600e+03,2.5474e-05
4.1700e+03,2.5447e-05
4.1800e+03,2.5357e-05
4.1900e+03,2.5250e-05
4.2000e+03,2.5142e-05
4.2100e+03,2.5041e-05
4.2200e+03,2.4958e-05
4.2300e+03,2.4902e-05
4.2400e+03,2.4868e-05
4.2500e+03,2.4852e-05
4.2600e+03,2.4857e-05
4.2700e+03,2.4893e-05
4.2800e+03,2.4962e-05
4.2900e+03,2.5052e-05
4.3000e+03,2.5136e-05
4.3100e+03,2.5190e-05
4.3200e+03,2.5212e-05
4.3300e+03,2.5208e-05
4.3400e+03,2.5186e-05
4.3500e+03,2.5149e-05
4.3600e+03,2.5105e-05
4.3700e+03,2.5065e-05
4.3800e+03,2.5040e-05
4.3900e+03,2.5035e-05
4.4000e+03,2.5044e-05
4.4100e+03,2.5059e-05
4.4200e+03,2.5067e-05
4.4300e+03,2.5066e-05
4.4400e+03,2.5061e-05
4.4500e+03,2.5057e-05
4.4600e+03,2.5056e-05
4.4700e+03,2.5063e-05
4.4800e+03,2.5084e-05
4.4900e+03,2.5122e-05
4.5000e+03,2.5173e-05
4.5100e+03,2.5226e-05
4.5200e+03,2.5273e-05
4.5300e+03,2.5316e-05
4.5400e+03,2.5355e-05
4.5500e+03,2.5385e-05
4.5600e+03,2.5397e-05
4.5700e+03,2.5392e-05
4.5800e+03,2.5375e-05
4.5900e+03,2.5357e-05
4.6000e+03,2.5344e-05
4.6100e+03,2.5347e-05
4.6200e+03,2.5378e-05
4.6300e+03,2.5444e-05
4.6400e+03,2.5528e-05
4.6500e+03,2.5602e-05
4.6600e+03,2.5643e-05
4.6700e+03,2.5651e-05
4.6800e+03,2.5633e-05
4.6900e+03,2.5595e-05
4.7000e+03,2.5532e-05
4.7100e+03,2.5438e-05
4.7200e+03,2.5320e-05
4.7300e+03,2.5203e-05
4.7400e+03,2.5109e-05
4.7500e+03,2.5049e-05
4.7600e+03,2.5021e-05
4.7700e+03,2.5015e-05
4.7800e+03,2.5024e-05
4.7900e+03,2.5042e-05
4.8000e+03,2.5061e-05
4.8100e+03,2.5083e-05
4.8200e+03,2.5126e-05
4.8300e+03,2.5230e-05
4.8400e+03,2.5410e-05
4.8500e+03,2.5626e-05
4.8600e+03,2.5804e-05
4.8700e+03,2.5890e-05
4.8800e+03,2.5891e-05
4.8900e+03,2.5857e-05
4.9000e+03,2.5841e-05
4.9100e+03,2.5861e-05
4.9200e+03,2.5877e-05
4.9300e+03,2.5854e-05
4.9400e+03,2.5805e-05
4.9500e+03,2.5781e-05
4.9600e+03,2.5822e-05
4.9700e+03,2.5921e-05
4.9800e+03,2.6054e-05
4.9900e+03,2.6199e-05
5.0000e+03,2.6329e-05
5.0100e+03,2.6395e-05
5.0200e+03,2.6354e-05
5.0300e+03,2.6207e-05
5.0400e+03,2.6011e-05
5.0500e+03,2.5859e-05
5.0600e+03,2.5827e-05
5.0700e+03,2.5906e-05
5.0800e+03,2.6009e-05
5.0900e+03,2.6058e-05
5.1000e+03,2.6052e-05
5.1100e+03,2.6036e-05
5.1200e+03,2.6020e-05
5.1300e+03,2.5965e-05
5.1400e+03,2.5822e-05
5.1500e+03,2.5589e-05
5.1600e+03,2.5327e-05
5.1700e+03,2.5100e-05
5.1800e+03,2.4938e-05
5.1900e+03,2.4842e-05
5.2000e+03,2.4785e-05
5.2100e+03,2.4741e-05
5.2200e+03,2.4692e-05
5.2300e+03,2.4633e-05
5.2400e+03,2.4558e-05
5.2500e+03,2.4471e-05
5.2600e+03,2.4389e-05
5.2700e+03,2.4330e-05
5.2800e+03,2.4288e-05
5.2900e+03,2.4231e-05
5.3000e+03,2.4110e-05
5.3100e+03,2.3901e-05
5.3200e+03,2.3627e-05
5.3300e+03,2.3359e-05
5.3400e+03,2.3184e-05
5.3500e+03,2.3156e-05
5.3600e+03,2.3262e-05
5.3700e+03,2.3431e-05
5.3800e+03,2.3585e-05
5.3900e+03,2.3686e-05
5.4000e+03,2.3736e-05
5.4100e+03,2.3750e-05
5.4200e+03,2.3732e-05
5.4300e+03,2.3677e-05
5.4400e+03,2.3591e-05
5.4500e+03,2.3494e-05
5.4600e+03,2.3414e-05
5.4700e+03,2.3372e-05
5.4800e+03,2.3373e-05
5.4900e+03,2.3403e-05
5.5000e+03,2.3438e-05
5.5100e+03,2.3444e-05
5.5200e+03,2.3392e-05
5.5300e+03,2.3290e-05
5.5400e+03,2.3171e-05
5.5500e+03,2.3066e-05
5.5600e+03,2.2978e-05
5.5700e+03,2.2900e-05
5.5800e+03,2.2839e-05
5.5900e+03,2.2802e-05
5.6000e+03,2.2787e-05
5.6100e+03,2.2777e-05
5.6200e+03,2.2763e-05
5.6300e+03,2.2746e-05
5.6400e+03,2.2734e-05
5.6500e+03,2.2730e-05
5.6600e+03,2.2726e-05
5.6700e+03,2.2717e-05
5.6800e+03,2.2701e-05
5.6900e+03,2.2687e-05
5.7000e+03,2.2681e-05
5.7100e+03,2.2686e-05
5.7200e+03,2.2692e-05
5.7300e+03,2.2687e-05
5.7400e+03,2.2664e-05
5.7500e+03,2.2627e-05
5.7600e+03,2.2589e-05
5.7700e+03,2.2559e-05
5.7800e+03,2.2543e-05
5.7900e+03,2.2535e-05
5.8000e+03,2.2523e-05
5.8100e+03,2.2493e-05
5.8200e+03,2.2445e-05
5.8300e+03,2.2390e-05
5.8400e+03,2.2345e-05
5.8500e+03,2.2323e-05
5.8600e+03,2.2335e-05
5.8700e+03,2.2376e-05
5.8800e+03,2.2412e-05
5.8900e+03,2.2403e-05
5.9000e+03,2.2340e-05
5.9100e+03,2.2251e-05
5.9200e+03,2.2173e-05
5.9300e+03,2.2122e-05
5.9400e+03,2.2095e-05
5.9500e+03,2.2084e-05
5.9600e+03,2.2085e-05
5.9700e+03,2.2089e-05
5.9800e+03,2.2083e-05
5.9900e+03,2.2063e-05
6.0000e+03,2.2030e-05
6.0100e+03,2.1985e-05
6.0200e+03,2.1934e-05
6.0300e+03,2.1887e-05
6.0400e+03,2.1853e-05
6.0500e+03,2.1844e-05
6.0600e+03,2.1861e-05
6.0700e+03,2.1877e-05
6.0800e+03,2.1840e-05
6.0900e+03,2.1700e-05
6.1000e+03,2.1472e-05
6.1100e+03,2.1244e-05
6.1200e+03,2.1123e-05
6.1300e+03,2.1174e-05
6.1400e+03,2.1409e-05
6.1500e+03,2.1773e-05
6.1600e+03,2.2155e-05
6.1700e+03,2.2456e-05
6.1800e+03,2.2626e-05
6.1900e+03,2.2639e-05
6.2000e+03,2.2471e-05
6.2100e+03,2.2121e-05
6.2200e+03,2.1666e-05
6.2300e+03,2.1261e-05
6.2400e+03,2.1051e-05
6.2500e+03,2.1082e-05
6.2600e+03,2.1290e-05
6.2700e+03,2.1574e-05
6.2800e+03,2.1858e-05
6.2900e+03,2.2092e-05
6.3000e+03,2.2240e-05
6.3100e+03,2.2276e-05
6.3200e+03,2.2198e-05
6.3300e+03,2.2042e-05
6.3400e+03,2.1859e-05
6.3500e+03,2.1681e-05
6.3600e+03,2.1514e-05
6.3700e+03,2.1353e-05
6.3800e+03,2.1195e-05
6.3900e+03,2.1043e-05
6.4000e+03,2.0905e-05
6.4100e+03,2.0787e-05
6.4200e+03,2.0692e-05
6.4300e+03,2.0624e-05
6.4400e+03,2.0587e-05
6.4500e+03,2.0584e-05
6.4600e+03,2.0621e-05
6.4700e+03,2.0689e-05
6.4800e+03,2.0761e-05
6.4900e+03,2.0811e-05
6.5000e+03,2.0841e-05
6.5100e+03,2.0868e-05
6.5200e+03,2.0876e-05
6.5300e+03,2.0832e-05
6.5400e+03,2.0717e-05
6.5500e+03,2.0543e-05
6.5600e+03,2.0334e-05
6.5700e+03,2.0111e-05
6.5800e+03,1.9897e-05
6.5900e+03,1.9729e-05
6.6000e+03,1.9647e-05
6.6100e+03,1.9666e-05
6.6200e+03,1.9761e-05
6.6300e+03,1.9887e-05
6.6400e+03,2.0002e-05
6.6500e+03,2.0085e-05
6.6600e+03,2.0129e-05
6.6700e+03,2.0143e-05
6.6800e+03,2.0144e-05
6.6900e+03,2.0141e-05
6.7000e+03,2.0137e-05
6.7100e+03,2.0141e-05
6.7200e+03,2.0166e-05
6.7300e+03,2.0213e-05
6.7400e+03,2.0269e-05
6.7500e+03,2.0313e-05
6.7600e+03,2.0332e-05
6.7700e+03,2.0328e-05
6.7800e+03,2.0300e-05
6.7900e+03,2.0244e-05
6.8000e+03,2.0161e-05
6.8100e+03,2.0068e-05
6.8200e+03,1.9985e-05
6.8300e+03,1.9933e-05
6.8400e+03,1.9922e-05
6.8500e+03,1.9951e-05
6.8600e+03,2.0005e-05
6.8700e+03,2.0062e-05
6.8800e+03,2.0084e-05
6.8900e+03,2.0029e-05
6.9000e+03,1.9870e-05
6.9100e+03,1.9620e-05
6.9200e+03,1.9330e-05
6.9300e+03,1.9063e-05
6.9400e+03,1.8873e-05
6.9500e+03,1.8779e-05
6.9600e+03,1.8765e-05
6.9700e+03,1.8791e-05
6.9800e+03,1.8811e-05
6.9900e+03,1.8782e-05
7.0000e+03,1.8677e-05
7.0100e+03,1.8513e-05
7.0200e+03,1.8355e-05
7.0300e+03,1.8272e-05
7.0400e+03,1.8293e-05
7.0500e+03,1.8408e-05
7.0600e+03,1.8593e-05
7.0700e+03,1.8813e-05
7.0800e+03,1.9024e-05
7.0900e+03,1.9184e-05
7.1000e+03,1.9284e-05
7.1100e+03,1.9338e-05
7.1200e+03,1.9349e-05
7.1300e+03,1.9313e-05
7.1400e+03,1.9227e-05
7.1500e+03,1.9120e-05
7.1600e+03,1.9049e-05
7.1700e+03,1.9077e-05
7.1800e+03,1.9210e-05
7.1900e+03,1.9378e-05
7.2000e+03,1.9476e-05
7.2100e+03,1.9421e-05
7.2200e+03,1.9214e-05
7.2300e+03,1.8953e-05
7.2400e+03,1.8770e-05
7.2500e+03,1.8745e-05
7.2600e+03,1.8886e-05
7.2700e+03,1.9169e-05
7.2800e+03,1.9547e-05
7.2900e+03,1.9958e-05
7.3000e+03,2.0341e-05
7.3100e+03,2.0653e-05
7.3200e+03,2.0890e-05
7.3300e+03,2.1069e-05
7.3400e+03,2.1216e-05
7.3500e+03,2.1351e-05
7.3600e+03,2.1475e-05
7.3700e+03,2.1573e-05
7.3800e+03,2.1634e-05
7.3900e+03,2.1661e-05
7.4000e+03,2.1670e-05
7.4100e+03,2.1682e-05
7.4200e+03,2.1694e-05
7.4300e+03,2.1676e-05
7.4400e+03,2.1587e-05
7.4500e+03,2.1434e-05
7.4600e+03,2.1281e-05
7.4700e+03,2.1216e-05
7.4800e+03,2.1261e-05
7.4900e+03,2.1362e-05
7.5000e+03,2.1446e-05
7.5100e+03,2.1467e-05
7.5200e+03,2.1382e-05
7.5300e+03,2.1152e-05
7.5400e+03,2.0799e-05
7.5500e+03,2.0461e-05
7.5600e+03,2.0314e-05
7.5700e+03,2.0433e-05
7.5800e+03,2.0745e-05
7.5900e+03,2.1110e-05
7.6000e+03,2.1410e-05
7.6100e+03,2.1597e-05
7.6200e+03,2.1699e-05
7.6300e+03,2.1777e-05
7.6400e+03,2.1869e-05
7.6500e+03,2.1961e-05
7.6600e+03,2.2018e-05
7.6700e+03,2.2027e-05
7.6800e+03,2.2001e-05
7.6900e+03,2.1961e-05
7.7000e+03,2.1920e-05
7.7100e+03,2.1888e-05
7.7200e+03,2.1868e-05
7.7300e+03,2.1857e-05
7.7400e+03,2.1854e-05
7.7500e+03,2.1862e-05
7.7600e+03,2.1886e-05
7.7700e+03,2.1917e-05
7.7800e+03,2.1935e-05
7.7900e+03,2.1912e-05
7.8000e+03,2.1836e-05
7.8100e+03,2.1725e-05
7.8200e+03,2.1625e-05
7.8300e+03,2.1582e-05
7.8400e+03,2.1606e-05
7.8500e+03,2.1666e-05
7.8600e+03,2.1723e-05
7.8700e+03,2.1757e-05
7.8800e+03,2.1768e-05
7.8900e+03,2.1752e-05
7.9000e+03,2.1702e-05
7.9100e+03,2.1618e-05
7.9200e+03,2.1503e-05
7.9300e+03,2.1371e-05
7.9400e+03,2.1250e-05
7.9500e+03,2.1165e-05
7.9600e+03,2.1112e-05
7.9700e+03,2.1072e-05
7.9800e+03,2.1027e-05
7.9900e+03,2.0968e-05
8.0000e+03,2.0896e-05
8.0100e+03,2.0828e-05
8.0200e+03,2.0806e-05
8.0300e+03,2.0874e-05
8.0400e+03,2.1035e-05
8.0500e+03,2.1245e-05
8.0600e+03,2.1435e-05
8.0700e+03,2.1549e-05
8.0800e+03,2.1576e-05
8.0900e+03,2.1538e-05
8.1000e+03,2.1473e-05
8.1100e+03,2.1403e-05
8.1200e+03,2.1334e-05
8.1300e+03,2.1267e-05
8.1400e+03,2.1218e-05
8.1500e+03,2.1206e-05
8.1600e+03,2.1228e-05
8.1700e+03,2.1249e-05
8.1800e+03,2.1230e-05
8.1900e+03,2.1155e-05
8.2000e+03,2.1044e-05
8.2100e+03,2.0919e-05
8.2200e+03,2.0794e-05
8.2300e+03,2.0682e-05
8.2400e+03,2.0596e-05
8.2500e+03,2.0535e-05
8.2600e+03,2.0500e-05
8.2700e+03,2.0484e-05
8.2800e+03,2.0443e-05
8.2900e+03,2.0316e-05
8.3000e+03,2.0069e-05
8.3100e+03,1.9723e-05
8.3200e+03,1.9334e-05
8.3300e+03,1.8981e-05
8.3400e+03,1.8744e-05
8.3500e+03,1.8660e-05
8.3600e+03,1.8714e-05
8.3700e+03,1.8859e-05
8.3800e+03,1.9030e-05
8.3900e+03,1.9173e-05
8.4000e+03,1.9256e-05
8.4100e+03,1.9269e-05
8.4200e+03,1.9222e-05
8.4300e+03,1.9139e-05
8.4400e+03,1.9048e-05
8.4500e+03,1.8969e-05
8.4600e+03,1.8904e-05
8.4700e+03,1.8849e-05
8.4800e+03,1.8797e-05
8.4900e+03,1.8746e-05
8.5000e+03,1.8703e-05
8.5100e+03,1.8682e-05
8.5200e+03,1.8694e-05
8.5300e+03,1.8740e-05
8.5400e+03,1.8809e-05
8.5500e+03,1.8884e-05
8.5600e+03,1.8948e-05
8.5700e+03,1.9004e-05
8.5800e+03,1.9075e-05
8.5900e+03,1.9174e-05
8.6000e+03,1.9293e-05
8.6100e+03,1.9398e-05
8.6200e+03,1.9446e-05
8.6300e+03,1.9421e-05
8.6400e+03,1.9349e-05
8.6500e+03,1.9266e-05
8.6600e+03,1.9181e-05
8.6700e+03,1.9090e-05
8.6800e+03,1.8994e-05
8.6900e+03,1.8901e-05
8.7000e+03,1.8818e-05
8.7100e+03,1.8752e-05
8.7200e+03,1.8715e-05
8.7300e+03,1.8716e-05
8.7400e+03,1.8758e-05
8.7500e+03,1.8842e-05
8.7600e+03,1.8953e-05
8.7700e+03,1.9047e-05
8.7800e+03,1.9077e-05
8.7900e+03,1.9017e-05
8.8000e+03,1.8880e-05
8.8100e+03,1.8714e-05
8.8200e+03,1.8577e-05
8.8300e+03,1.8518e-05
8.8400e+03,1.8548e-05
8.8500e+03,1.8651e-05
8.8600e+03,1.8794e-05
8.8700e+03,1.8933e-05
8.8800e+03,1.9019e-05
8.8900e+03,1.9033e-05
8.9000e+03,1.8991e-05
8.9100e+03,1.8917e-05
8.9200e+03,1.8834e-05
8.9300e+03,1.8766e-05
8.9400e+03,1.8732e-05
8.9500e+03,1.8732e-05
8.9600e+03,1.8747e-05
8.9700e+03,1.8754e-05
8.9800e+03,1.8740e-05
8.9900e+03,1.8713e-05
9.0000e+03,1.8685e-05
9.0100e+03,1.8652e-05
9.0200e+03,1.8597e-05
9.0300e+03,1.8522e-05
9.0400e+03,1.8459e-05
9.0500e+03,1.8446e-05
9.0600e+03,1.8496e-05
9.0700e+03,1.8587e-05
