# Time , Side-Flux
0.0000e+00,0.0000e+00
1.0000e+01,2.5385e-06
2.0000e+01,4.8809e-06
3.0000e+01,6.8770e-06
4.0000e+01,8.4482e-06
5.0000e+01,9.5866e-06
6.0000e+01,1.0337e-05
7.0000e+01,1.0774e-05
8.0000e+01,1.0978e-05
9.0000e+01,1.1025e-05
1.0000e+02,1.0978e-05
1.1000e+02,1.0885e-05
1.2000e+02,1.0778e-05
1.3000e+02,1.0678e-05
1.4000e+02,1.0594e-05
1.5000e+02,1.0530e-05
1.6000e+02,1.0487e-05
1.7000e+02,1.0461e-05
1.8000e+02,1.0447e-05
1.9000e+02,1.0443e-05
2.0000e+02,1.0445e-05
2.1000e+02,1.0450e-05
2.2000e+02,1.0457e-05
2.3000e+02,1.0463e-05
2.4000e+02,1.0469e-05
2.5000e+02,1.0473e-05
2.6000e+02,1.0477e-05
2.7000e+02,1.0479e-05
2.8000e+02,1.0481e-05
2.9000e+02,1.0482e-05
3.0000e+02,1.0483e-05
3.1000e+02,1.0483e-05
3.2000e+02,1.0483e-05
3.3000e+02,1.0484e-05
3.4000e+02,1.0484e-05
3.5000e+02,1.0485e-05
3.6000e+02,1.0487e-05
3.7000e+02,1.0488e-05
3.8000e+02,1.0489e-05
3.9000e+02,1.0490e-05
4.0000e+02,1.0492e-05
4.1000e+02,1.0493e-05
4.2000e+02,1.0494e-05
4.3000e+02,1.0495e-05
4.4000e+02,1.0496e-05
4.5000e+02,1.0497e-05
4.6000e+02,1.0496e-05
4.7000e+02,1.0496e-05
4.8000e+02,1.0495e-05
4.9000e+02,1.0495e-05
5.0000e+02,1.0494e-05
5.1000e+02,1.0494e-05
5.2000e+02,1.0493e-05
5.3000e+02,1.0493e-05
5.4000e+02,1.0492e-05
5.5000e+02,1.0491e-05
5.6000e+02,1.0489e-05
5.7000e+02,1.0487e-05
5.8000e+02,1.0485e-05
5.9000e+02,1.0481e-05
6.0000e+02,1.0475e-05
6.1000e+02,1.0467e-05
6.2000e+02,1.0457e-05
6.3000e+02,1.0444e-05
6.4000e+02,1.0428e-05
6.5000e+02,1.0408e-05
6.6000e+02,1.0385e-05
6.7000e+02,1.0358e-05
6.8000e+02,1.0327e-05
6.9000e+02,1.0293e-05
7.0000e+02,1.0256e-05
7.1000e+02,1.0218e-05
7.2000e+02,1.0179e-05
7.3000e+02,1.0141e-05
7.4000e+02,1.0107e-05
7.5000e+02,1.0077e-05
7.6000e+02,1.0056e-05
7.7000e+02,1.0044e-05
7.8000e+02,1.0043e-05
7.9000e+02,1.0050e-05
8.0000e+02,1.0063e-05
8.1000e+02,1.0077e-05
8.2000e+02,1.0089e-05
8.3000e+02,1.0096e-05
8.4000e+02,1.0099e-05
8.5000e+02,1.0101e-05
8.6000e+02,1.0104e-05
8.7000e+02,1.0111e-05
8.8000e+02,1.0123e-05
8.9000e+02,1.0137e-05
9.0000e+02,1.0151e-05
9.1000e+02,1.0159e-05
9.2000e+02,1.0155e-05
9.3000e+02,1.0137e-05
9.4000e+02,1.0103e-05
9.5000e+02,1.0056e-05
9.6000e+02,1.0002e-05
9.7000e+02,9.9484e-06
9.8000e+02,9.9058e-06
9.9000e+02,9.8825e-06
1.0000e+03,9.8836e-06
1.0100e+03,9.9093e-06
1.0200e+03,9.9542e-06
1.0300e+03,1.0008e-05
1.0400e+03,1.0056e-05
1.0500e+03,1.0087e-05
1.0600e+03,1.0091e-05
1.0700e+03,1.0063e-05
1.0800e+03,1.0005e-05
1.0900e+03,9.9231e-06
1.1000e+03,9.8299e-06
1.1100e+03,9.7390e-06
1.1200e+03,9.6637e-06
1.1300e+03,9.6143e-06
1.1400e+03,9.5960e-06
1.1500e+03,9.6080e-06
1.1600e+03,9.6449e-06
1.1700e+03,9.6980e-06
1.1800e+03,9.7573e-06
1.1900e+03,9.8134e-06
1.2000e+03,9.8585e-06
1.2100e+03,9.8868e-06
1.2200e+03,9.8949e-06
1.2300e+03,9.8815e-06
1.2400e+03,9.8477e-06
1.2500e+03,9.7967e-06
1.2600e+03,9.7344e-06
1.2700e+03,9.6680e-06
1.2800e+03,9.6054e-06
1.2900e+03,9.5533e-06
1.3000e+03,9.5162e-06
1.3100e+03,9.4953e-06
1.3200e+03,9.4894e-06
1.3300e+03,9.4949e-06
1.3400e+03,9.5075e-06
1.3500e+03,9.5228e-06
1.3600e+03,9.5380e-06
1.3700e+03,9.5519e-06
1.3800e+03,9.5643e-06
1.3900e+03,9.5759e-06
1.4000e+03,9.5871e-06
1.4100e+03,9.5975e-06
1.4200e+03,9.6061e-06
1.4300e+03,9.6120e-06
1.4400e+03,9.6140e-06
1.4500e+03,9.6119e-06
1.4600e+03,9.6060e-06
1.4700e+03,9.5973e-06
1.4800e+03,9.5870e-06
1.4900e+03,9.5768e-06
1.5000e+03,9.5680e-06
1.5100e+03,9.5617e-06
1.5200e+03,9.5585e-06
1.5300e+03,9.5582e-06
1.5400e+03,9.5604e-06
1.5500e+03,9.5638e-06
1.5600e+03,9.5673e-06
1.5700e+03,9.5696e-06
1.5800e+03,9.5701e-06
1.5900e+03,9.5686e-06
1.6000e+03,9.5657e-06
1.6100e+03,9.5620e-06
1.6200e+03,9.5578e-06
1.6300e+03,9.5528e-06
1.6400e+03,9.5466e-06
1.6500e+03,9.5384e-06
1.6600e+03,9.5282e-06
1.6700e+03,9.5166e-06
1.6800e+03,9.5047e-06
1.6900e+03,9.4937e-06
1.7000e+03,9.4844e-06
1.7100e+03,9.4770e-06
1.7200e+03,9.4718e-06
1.7300e+03,9.4689e-06
1.7400e+03,9.4691e-06
1.7500e+03,9.4732e-06
1.7600e+03,9.4817e-06
1.7700e+03,9.4943e-06
1.7800e+03,9.5092e-06
1.7900e+03,9.5234e-06
1.8000e+03,9.5332e-06
1.8100e+03,9.5350e-06
1.8200e+03,9.5265e-06
1.8300e+03,9.5072e-06
1.8400e+03,9.4790e-06
1.8500e+03,9.4453e-06
1.8600e+03,9.4102e-06
1.8700e+03,9.3773e-06
1.8800e+03,9.3486e-06
1.8900e+03,9.3251e-06
1.9000e+03,9.3060e-06
1.9100e+03,9.2904e-06
1.9200e+03,9.2773e-06
1.9300e+03,9.2662e-06
1.9400e+03,9.2575e-06
1.9500e+03,9.2521e-06
1.9600e+03,9.2513e-06
1.9700e+03,9.2563e-06
1.9800e+03,9.2678e-06
1.9900e+03,9.2853e-06
2.0000e+03,9.3068e-06
2.0100e+03,9.3293e-06
2.0200e+03,9.3491e-06
2.0300e+03,9.3626e-06
2.0400e+03,9.3670e-06
2.0500e+03,9.3609e-06
2.0600e+03,9.3438e-06
2.0700e+03,9.3163e-06
2.0800e+03,9.2798e-06
2.0900e+03,9.2365e-06
2.1000e+03,9.1886e-06
2.1100e+03,9.1384e-06
2.1200e+03,9.0874e-06
2.1300e+03,9.0363e-06
2.1400e+03,8.9850e-06
2.1500e+03,8.9330e-06
2.1600e+03,8.8803e-06
2.1700e+03,8.8278e-06
2.1800e+03,8.7778e-06
2.1900e+03,8.7338e-06
2.2000e+03,8.7000e-06
2.2100e+03,8.6803e-06
2.2200e+03,8.6767e-06
2.2300e+03,8.6889e-06
2.2400e+03,8.7143e-06
2.2500e+03,8.7492e-06
2.2600e+03,8.7899e-06
2.2700e+03,8.8338e-06
2.2800e+03,8.8780e-06
2.2900e+03,8.9196e-06
2.3000e+03,8.9546e-06
2.3100e+03,8.9791e-06
2.3200e+03,8.9896e-06
2.3300e+03,8.9843e-06
2.3400e+03,8.9635e-06
2.3500e+03,8.9293e-06
2.3600e+03,8.8860e-06
2.3700e+03,8.8389e-06
2.3800e+03,8.7934e-06
2.3900e+03,8.7541e-06
2.4000e+03,8.7244e-06
2.4100e+03,8.7062e-06
2.4200e+03,8.6999e-06
2.4300e+03,8.7045e-06
2.4400e+03,8.7180e-06
2.4500e+03,8.7374e-06
2.4600e+03,8.7587e-06
2.4700e+03,8.7782e-06
2.4800e+03,8.7928e-06
2.4900e+03,8.8012e-06
2.5000e+03,8.8036e-06
2.5100e+03,8.8014e-06
2.5200e+03,8.7964e-06
2.5300e+03,8.7900e-06
2.5400e+03,8.7833e-06
2.5500e+03,8.7769e-06
2.5600e+03,8.7711e-06
2.5700e+03,8.7661e-06
2.5800e+03,8.7618e-06
2.5900e+03,8.7581e-06
2.6000e+03,8.7547e-06
2.6100e+03,8.7511e-06
2.6200e+03,8.7468e-06
2.6300e+03,8.7413e-06
2.6400e+03,8.7344e-06
2.6500e+03,8.7258e-06
2.6600e+03,8.7158e-06
2.6700e+03,8.7045e-06
2.6800e+03,8.6921e-06
2.6900e+03,8.6791e-06
2.7000e+03,8.6657e-06
2.7100e+03,8.6526e-06
2.7200e+03,8.6405e-06
2.7300e+03,8.6307e-06
2.7400e+03,8.6246e-06
2.7500e+03,8.6236e-06
2.7600e+03,8.6283e-06
2.7700e+03,8.6382e-06
2.7800e+03,8.6512e-06
2.7900e+03,8.6639e-06
2.8000e+03,8.6723e-06
2.8100e+03,8.6734e-06
2.8200e+03,8.6653e-06
2.8300e+03,8.6476e-06
2.8400e+03,8.6208e-06
2.8500e+03,8.5861e-06
2.8600e+03,8.5448e-06
2.8700e+03,8.4987e-06
2.8800e+03,8.4494e-06
2.8900e+03,8.3987e-06
2.9000e+03,8.3485e-06
2.9100e+03,8.3007e-06
2.9200e+03,8.2576e-06
2.9300e+03,8.2216e-06
2.9400e+03,8.1950e-06
2.9500e+03,8.1784e-06
2.9600e+03,8.1705e-06
2.9700e+03,8.1681e-06
2.9800e+03,8.1671e-06
2.9900e+03,8.1635e-06
3.0000e+03,8.1552e-06
3.0100e+03,8.1433e-06
3.0200e+03,8.1322e-06
3.0300e+03,8.1284e-06
3.0400e+03,8.1382e-06
3.0500e+03,8.1654e-06
3.0600e+03,8.2096e-06
3.0700e+03,8.2657e-06
3.0800e+03,8.3249e-06
3.0900e+03,8.3765e-06
3.1000e+03,8.4114e-06
3.1100e+03,8.4248e-06
3.1200e+03,8.4177e-06
3.1300e+03,8.3956e-06
3.1400e+03,8.3667e-06
3.1500e+03,8.3386e-06
3.1600e+03,8.3167e-06
3.1700e+03,8.3032e-06
3.1800e+03,8.2981e-06
3.1900e+03,8.2992e-06
3.2000e+03,8.3041e-06
3.2100e+03,8.3101e-06
3.2200e+03,8.3156e-06
3.2300e+03,8.3194e-06
3.2400e+03,8.3212e-06
3.2500e+03,8.3207e-06
3.2600e+03,8.3178e-06
3.2700e+03,8.3124e-06
3.2800e+03,8.3043e-06
3.2900e+03,8.2942e-06
3.3000e+03,8.2828e-06
3.3100e+03,8.2717e-06
3.3200e+03,8.2623e-06
3.3300e+03,8.2564e-06
3.3400e+03,8.2552e-06
3.3500e+03,8.2593e-06
3.3600e+03,8.2685e-06
3.3700e+03,8.2815e-06
3.3800e+03,8.2961e-06
3.3900e+03,8.3096e-06
3.4000e+03,8.3188e-06
3.4100e+03,8.3212e-06
3.4200e+03,8.3157e-06
3.4300e+03,8.3022e-06
3.4400e+03,8.2824e-06
3.4500e+03,8.2588e-06
3.4600e+03,8.2344e-06
3.4700e+03,8.2109e-06
3.4800e+03,8.1889e-06
3.4900e+03,8.1678e-06
3.5000e+03,8.1465e-06
3.5100e+03,8.1247e-06
3.5200e+03,8.1035e-06
3.5300e+03,8.0850e-06
3.5400e+03,8.0716e-06
3.5500e+03,8.0650e-06
3.5600e+03,8.0658e-06
3.5700e+03,8.0732e-06
3.5800e+03,8.0853e-06
3.5900e+03,8.1000e-06
3.6000e+03,8.1147e-06
3.6100e+03,8.1273e-06
3.6200e+03,8.1367e-06
3.6300e+03,8.1421e-06
3.6400e+03,8.1439e-06
3.6500e+03,8.1426e-06
3.6600e+03,8.1388e-06
3.6700e+03,8.1330e-06
3.6800e+03,8.1253e-06
3.6900e+03,8.1158e-06
3.7000e+03,8.1049e-06
3.7100e+03,8.0937e-06
3.7200e+03,8.0834e-06
3.7300e+03,8.0757e-06
3.7400e+03,8.0721e-06
3.7500e+03,8.0738e-06
3.7600e+03,8.0815e-06
3.7700e+03,8.0953e-06
3.7800e+03,8.1138e-06
3.7900e+03,8.1346e-06
3.8000e+03,8.1539e-06
3.8100e+03,8.1680e-06
3.8200e+03,8.1734e-06
3.8300e+03,8.1685e-06
3.8400e+03,8.1531e-06
3.8500e+03,8.1290e-06
3.8600e+03,8.0992e-06
3.8700e+03,8.0666e-06
3.8800e+03,8.0334e-06
3.8900e+03,8.0001e-06
3.9000e+03,7.9661e-06
3.9100e+03,7.9299e-06
3.9200e+03,7.8916e-06
3.9300e+03,7.8534e-06
3.9400e+03,7.8203e-06
3.9500e+03,7.7982e-06
3.9600e+03,7.7930e-06
3.9700e+03,7.8075e-06
3.9800e+03,7.8405e-06
3.9900e+03,7.8859e-06
4.0000e+03,7.9344e-06
4.0100e+03,7.9750e-06
4.0200e+03,7.9980e-06
4.0300e+03,7.9977e-06
4.0400e+03,7.9734e-06
4.0500e+03,7.9294e-06
4.0600e+03,7.8730e-06
4.0700e+03,7.8126e-06
4.0800e+03,7.7552e-06
4.0900e+03,7.7048e-06
4.1000e+03,7.6614e-06
4.1100e+03,7.6215e-06
4.1200e+03,7.5793e-06
4.1300e+03,7.5293e-06
4.1400e+03,7.4682e-06
4.1500e+03,7.3965e-06
4.1600e+03,7.3184e-06
4.1700e+03,7.2402e-06
4.1800e+03,7.1683e-06
4.1900e+03,7.1080e-06
4.2000e+03,7.0618e-06
4.2100e+03,7.0296e-06
4.2200e+03,7.0095e-06
4.2300e+03,6.9979e-06
4.2400e+03,6.9911e-06
4.2500e+03,6.9857e-06
4.2600e+03,6.9792e-06
4.2700e+03,6.9697e-06
4.2800e+03,6.9565e-06
4.2900e+03,6.9392e-06
4.3000e+03,6.9182e-06
4.3100e+03,6.8941e-06
4.3200e+03,6.8679e-06
4.3300e+03,6.8406e-06
4.3400e+03,6.8136e-06
4.3500e+03,6.7876e-06
4.3600e+03,6.7633e-06
4.3700e+03,6.7408e-06
4.3800e+03,6.7197e-06
4.3900e+03,6.6988e-06
4.4000e+03,6.6766e-06
4.4100e+03,6.6519e-06
4.4200e+03,6.6236e-06
4.4300e+03,6.5918e-06
4.4400e+03,6.5579e-06
4.4500e+03,6.5243e-06
4.4600e+03,6.4946e-06
4.4700e+03,6.4725e-06
4.4800e+03,6.4613e-06
4.4900e+03,6.4633e-06
4.5000e+03,6.4792e-06
4.5100e+03,6.5080e-06
4.5200e+03,6.5472e-06
4.5300e+03,6.5928e-06
4.5400e+03,6.6405e-06
4.5500e+03,6.6856e-06
4.5600e+03,6.7245e-06
4.5700e+03,6.7544e-06
4.5800e+03,6.7742e-06
4.5900e+03,6.7840e-06
4.6000e+03,6.7850e-06
4.6100e+03,6.7791e-06
4.6200e+03,6.7683e-06
4.6300e+03,6.7543e-06
4.6400e+03,6.7382e-06
4.6500e+03,6.7207e-06
4.6600e+03,6.7023e-06
4.6700e+03,6.6833e-06
4.6800e+03,6.6645e-06
4.6900e+03,6.6468e-06
4.7000e+03,6.6316e-06
4.7100e+03,6.6204e-06
4.7200e+03,6.6146e-06
4.7300e+03,6.6152e-06
4.7400e+03,6.6221e-06
4.7500e+03,6.6343e-06
4.7600e+03,6.6500e-06
4.7700e+03,6.6674e-06
4.7800e+03,6.6844e-06
4.7900e+03,6.6994e-06
4.8000e+03,6.7111e-06
4.8100e+03,6.7189e-06
4.8200e+03,6.7226e-06
4.8300e+03,6.7231e-06
4.8400e+03,6.7216e-06
4.8500e+03,6.7194e-06
4.8600e+03,6.7181e-06
4.8700e+03,6.7189e-06
4.8800e+03,6.7225e-06
4.8900e+03,6.7291e-06
4.9000e+03,6.7381e-06
4.9100e+03,6.7480e-06
4.9200e+03,6.7569e-06
4.9300e+03,6.7633e-06
4.9400e+03,6.7666e-06
4.9500e+03,6.7682e-06
4.9600e+03,6.7711e-06
4.9700e+03,6.7796e-06
4.9800e+03,6.7982e-06
4.9900e+03,6.8297e-06
5.0000e+03,6.8745e-06
5.0100e+03,6.9289e-06
5.0200e+03,6.9850e-06
5.0300e+03,7.0321e-06
5.0400e+03,7.0578e-06
5.0500e+03,7.0512e-06
5.0600e+03,7.0052e-06
5.0700e+03,6.9189e-06
5.0800e+03,6.7974e-06
5.0900e+03,6.6498e-06
5.1000e+03,6.4865e-06
5.1100e+03,6.3165e-06
5.1200e+03,6.1467e-06
5.1300e+03,5.9824e-06
5.1400e+03,5.8279e-06
5.1500e+03,5.6879e-06
5.1600e+03,5.5670e-06
5.1700e+03,5.4689e-06
5.1800e+03,5.3958e-06
5.1900e+03,5.3490e-06
5.2000e+03,5.3288e-06
5.2100e+03,5.3354e-06
5.2200e+03,5.3677e-06
5.2300e+03,5.4227e-06
5.2400e+03,5.4948e-06
5.2500e+03,5.5767e-06
5.2600e+03,5.6607e-06
5.2700e+03,5.7399e-06
5.2800e+03,5.8092e-06
5.2900e+03,5.8647e-06
5.3000e+03,5.9041e-06
5.3100e+03,5.9269e-06
5.3200e+03,5.9351e-06
5.3300e+03,5.9328e-06
5.3400e+03,5.9266e-06
5.3500e+03,5.9235e-06
5.3600e+03,5.9304e-06
5.3700e+03,5.9520e-06
5.3800e+03,5.9905e-06
5.3900e+03,6.0447e-06
5.4000e+03,6.1097e-06
5.4100e+03,6.1782e-06
5.4200e+03,6.2416e-06
5.4300e+03,6.2923e-06
5.4400e+03,6.3252e-06
5.4500e+03,6.3388e-06
5.4600e+03,6.3349e-06
5.4700e+03,6.3173e-06
5.4800e+03,6.2907e-06
5.4900e+03,6.2597e-06
5.5000e+03,6.2275e-06
5.5100e+03,6.1963e-06
5.5200e+03,6.1672e-06
5.5300e+03,6.1407e-06
5.5400e+03,6.1165e-06
5.5500e+03,6.0943e-06
5.5600e+03,6.0731e-06
5.5700e+03,6.0520e-06
5.5800e+03,6.0301e-06
5.5900e+03,6.0065e-06
5.6000e+03,5.9811e-06
5.6100e+03,5.9544e-06
5.6200e+03,5.9274e-06
5.6300e+03,5.9018e-06
5.6400e+03,5.8797e-06
5.6500e+03,5.8631e-06
5.6600e+03,5.8536e-06
5.6700e+03,5.8527e-06
5.6800e+03,5.8608e-06
5.6900e+03,5.8778e-06
5.7000e+03,5.9028e-06
5.7100e+03,5.9337e-06
5.7200e+03,5.9679e-06
5.7300e+03,6.0025e-06
5.7400e+03,6.0351e-06
5.7500e+03,6.0637e-06
5.7600e+03,6.0876e-06
5.7700e+03,6.1071e-06
5.7800e+03,6.1231e-06
5.7900e+03,6.1371e-06
5.8000e+03,6.1499e-06
5.8100e+03,6.1616e-06
5.8200e+03,6.1717e-06
5.8300e+03,6.1792e-06
5.8400e+03,6.1835e-06
5.8500e+03,6.1846e-06
5.8600e+03,6.1831e-06
5.8700e+03,6.1802e-06
5.8800e+03,6.1764e-06
5.8900e+03,6.1721e-06
5.9000e+03,6.1669e-06
5.9100e+03,6.1601e-06
5.9200e+03,6.1508e-06
5.9300e+03,6.1385e-06
5.9400e+03,6.1235e-06
5.9500e+03,6.1071e-06
5.9600e+03,6.0918e-06
5.9700e+03,6.0809e-06
5.9800e+03,6.0782e-06
5.9900e+03,6.0872e-06
6.0000e+03,6.1107e-06
6.0100e+03,6.1497e-06
6.0200e+03,6.2036e-06
6.0300e+03,6.2700e-06
6.0400e+03,6.3446e-06
6.0500e+03,6.4223e-06
6.0600e+03,6.4978e-06
6.0700e+03,6.5660e-06
6.0800e+03,6.6230e-06
6.0900e+03,6.6668e-06
6.1000e+03,6.6973e-06
6.1100e+03,6.7164e-06
6.1200e+03,6.7268e-06
6.1300e+03,6.7314e-06
6.1400e+03,6.7321e-06
6.1500e+03,6.7301e-06
6.1600e+03,6.7260e-06
6.1700e+03,6.7210e-06
6.1800e+03,6.7169e-06
6.1900e+03,6.7166e-06
6.2000e+03,6.7237e-06
6.2100e+03,6.7422e-06
6.2200e+03,6.7750e-06
6.2300e+03,6.8239e-06
6.2400e+03,6.8889e-06
6.2500e+03,6.9677e-06
6.2600e+03,7.0568e-06
6.2700e+03,7.1522e-06
6.2800e+03,7.2507e-06
6.2900e+03,7.3505e-06
6.3000e+03,7.4511e-06
6.3100e+03,7.5526e-06
6.3200e+03,7.6548e-06
6.3300e+03,7.7561e-06
6.3400e+03,7.8533e-06
6.3500e+03,7.9414e-06
6.3600e+03,8.0154e-06
6.3700e+03,8.0711e-06
6.3800e+03,8.1065e-06
6.3900e+03,8.1216e-06
6.4000e+03,8.1189e-06
6.4100e+03,8.1027e-06
6.4200e+03,8.0778e-06
6.4300e+03,8.0495e-06
6.4400e+03,8.0223e-06
6.4500e+03,7.9997e-06
6.4600e+03,7.9837e-06
6.4700e+03,7.9751e-06
6.4800e+03,7.9737e-06
6.4900e+03,7.9791e-06
6.5000e+03,7.9906e-06
6.5100e+03,8.0076e-06
6.5200e+03,8.0286e-06
6.5300e+03,8.0511e-06
6.5400e+03,8.0718e-06
6.5500e+03,8.0870e-06
6.5600e+03,8.0932e-06
6.5700e+03,8.0883e-06
6.5800e+03,8.0718e-06
6.5900e+03,8.0446e-06
6.6000e+03,8.0092e-06
6.6100e+03,7.9689e-06
6.6200e+03,7.9273e-06
6.6300e+03,7.8872e-06
6.6400e+03,7.8507e-06
6.6500e+03,7.8189e-06
6.6600e+03,7.7924e-06
6.6700e+03,7.7714e-06
6.6800e+03,7.7554e-06
6.6900e+03,7.7435e-06
6.7000e+03,7.7347e-06
6.7100e+03,7.7280e-06
6.7200e+03,7.7230e-06
6.7300e+03,7.7193e-06
6.7400e+03,7.7171e-06
6.7500e+03,7.7163e-06
6.7600e+03,7.7170e-06
6.7700e+03,7.7187e-06
6.7800e+03,7.7204e-06
6.7900e+03,7.7211e-06
6.8000e+03,7.7198e-06
6.8100e+03,7.7160e-06
6.8200e+03,7.7097e-06
6.8300e+03,7.7015e-06
6.8400e+03,7.6919e-06
6.8500e+03,7.6808e-06
6.8600e+03,7.6669e-06
6.8700e+03,7.6476e-06
6.8800e+03,7.6203e-06
6.8900e+03,7.5832e-06
6.9000e+03,7.5372e-06
6.9100e+03,7.4857e-06
6.9200e+03,7.4342e-06
6.9300e+03,7.3888e-06
6.9400e+03,7.3545e-06
6.9500e+03,7.3339e-06
6.9600e+03,7.3267e-06
6.9700e+03,7.3303e-06
6.9800e+03,7.3401e-06
6.9900e+03,7.3516e-06
7.0000e+03,7.3611e-06
7.0100e+03,7.3663e-06
7.0200e+03,7.3665e-06
7.0300e+03,7.3617e-06
7.0400e+03,7.3521e-06
7.0500e+03,7.3383e-06
7.0600e+03,7.3205e-06
7.0700e+03,7.2988e-06
7.0800e+03,7.2733e-06
7.0900e+03,7.2441e-06
7.1000e+03,7.2114e-06
7.1100e+03,7.1756e-06
7.1200e+03,7.1372e-06
7.1300e+03,7.0972e-06
7.1400e+03,7.0571e-06
7.1500e+03,7.0195e-06
7.1600e+03,6.9874e-06
7.1700e+03,6.9640e-06
7.1800e+03,6.9523e-06
7.1900e+03,6.9545e-06
7.2000e+03,6.9718e-06
7.2100e+03,7.0043e-06
7.2200e+03,7.0502e-06
7.2300e+03,7.1059e-06
7.2400e+03,7.1666e-06
7.2500e+03,7.2265e-06
7.2600e+03,7.2796e-06
7.2700e+03,7.3203e-06
7.2800e+03,7.3441e-06
7.2900e+03,7.3480e-06
7.3000e+03,7.3317e-06
7.3100e+03,7.2974e-06
7.3200e+03,7.2498e-06
7.3300e+03,7.1956e-06
7.3400e+03,7.1419e-06
7.3500e+03,7.0952e-06
7.3600e+03,7.0605e-06
7.3700e+03,7.0397e-06
7.3800e+03,7.0317e-06
7.3900e+03,7.0326e-06
7.4000e+03,7.0366e-06
7.4100e+03,7.0376e-06
7.4200e+03,7.0306e-06
7.4300e+03,7.0124e-06
7.4400e+03,6.9822e-06
7.4500e+03,6.9411e-06
7.4600e+03,6.8911e-06
7.4700e+03,6.8341e-06
7.4800e+03,6.7716e-06
7.4900e+03,6.7041e-06
7.5000e+03,6.6324e-06
7.5100e+03,6.5579e-06
7.5200e+03,6.4840e-06
7.5300e+03,6.4162e-06
7.5400e+03,6.3615e-06
7.5500e+03,6.3268e-06
7.5600e+03,6.3159e-06
7.5700e+03,6.3277e-06
7.5800e+03,6.3555e-06
7.5900e+03,6.3888e-06
7.6000e+03,6.4161e-06
7.6100e+03,6.4283e-06
7.6200e+03,6.4205e-06
7.6300e+03,6.3918e-06
7.6400e+03,6.3455e-06
7.6500e+03,6.2869e-06
7.6600e+03,6.2228e-06
7.6700e+03,6.1601e-06
7.6800e+03,6.1059e-06
7.6900e+03,6.0656e-06
7.7000e+03,6.0420e-06
7.7100e+03,6.0345e-06
7.7200e+03,6.0394e-06
7.7300e+03,6.0512e-06
7.7400e+03,6.0643e-06
7.7500e+03,6.0746e-06
7.7600e+03,6.0798e-06
7.7700e+03,6.0800e-06
7.7800e+03,6.0761e-06
7.7900e+03,6.0698e-06
7.8000e+03,6.0628e-06
7.8100e+03,6.0559e-06
7.8200e+03,6.0493e-06
7.8300e+03,6.0428e-06
7.8400e+03,6.0356e-06
7.8500e+03,6.0274e-06
7.8600e+03,6.0177e-06
7.8700e+03,6.0064e-06
7.8800e+03,5.9934e-06
7.8900e+03,5.9786e-06
7.9000e+03,5.9619e-06
7.9100e+03,5.9433e-06
7.9200e+03,5.9230e-06
7.9300e+03,5.9013e-06
7.9400e+03,5.8788e-06
7.9500e+03,5.8565e-06
7.9600e+03,5.8362e-06
7.9700e+03,5.8202e-06
7.9800e+03,5.8109e-06
7.9900e+03,5.8099e-06
8.0000e+03,5.8176e-06
8.0100e+03,5.8329e-06
8.0200e+03,5.8531e-06
8.0300e+03,5.8743e-06
8.0400e+03,5.8924e-06
8.0500e+03,5.9029e-06
8.0600e+03,5.9024e-06
8.0700e+03,5.8879e-06
8.0800e+03,5.8576e-06
8.0900e+03,5.8112e-06
8.1000e+03,5.7505e-06
8.1100e+03,5.6794e-06
8.1200e+03,5.6041e-06
8.1300e+03,5.5327e-06
8.1400e+03,5.4743e-06
8.1500e+03,5.4373e-06
8.1600e+03,5.4280e-06
8.1700e+03,5.4489e-06
8.1800e+03,5.4977e-06
8.1900e+03,5.5684e-06
8.2000e+03,5.6516e-06
8.2100e+03,5.7372e-06
8.2200e+03,5.8154e-06
8.2300e+03,5.8783e-06
8.2400e+03,5.9201e-06
8.2500e+03,5.9377e-06
8.2600e+03,5.9307e-06
8.2700e+03,5.9014e-06
8.2800e+03,5.8548e-06
8.2900e+03,5.7975e-06
8.3000e+03,5.7367e-06
8.3100e+03,5.6788e-06
8.3200e+03,5.6284e-06
8.3300e+03,5.5882e-06
8.3400e+03,5.5593e-06
8.3500e+03,5.5413e-06
8.3600e+03,5.5335e-06
8.3700e+03,5.5343e-06
8.3800e+03,5.5412e-06
8.3900e+03,5.5512e-06
8.4000e+03,5.5611e-06
8.4100e+03,5.5678e-06
8.4200e+03,5.5693e-06
8.4300e+03,5.5650e-06
8.4400e+03,5.5557e-06
8.4500e+03,5.5436e-06
8.4600e+03,5.5311e-06
8.4700e+03,5.5209e-06
8.4800e+03,5.5151e-06
8.4900e+03,5.5154e-06
8.5000e+03,5.5225e-06
8.5100e+03,5.5368e-06
8.5200e+03,5.5579e-06
8.5300e+03,5.5848e-06
8.5400e+03,5.6165e-06
8.5500e+03,5.6513e-06
8.5600e+03,5.6882e-06
8.5700e+03,5.7255e-06
8.5800e+03,5.7620e-06
8.5900e+03,5.7956e-06
8.6000e+03,5.8241e-06
8.6100e+03,5.8448e-06
8.6200e+03,5.8547e-06
8.6300e+03,5.8507e-06
8.6400e+03,5.8299e-06
8.6500e+03,5.7902e-06
8.6600e+03,5.7313e-06
8.6700e+03,5.6557e-06
8.6800e+03,5.5704e-06
8.6900e+03,5.4861e-06
8.7000e+03,5.4160e-06
8.7100e+03,5.3728e-06
8.7200e+03,5.3655e-06
8.7300e+03,5.3972e-06
8.7400e+03,5.4649e-06
8.7500e+03,5.5601e-06
8.7600e+03,5.6719e-06
8.7700e+03,5.7879e-06
8.7800e+03,5.8968e-06
8.7900e+03,5.9889e-06
8.8000e+03,6.0573e-06
8.8100e+03,6.0987e-06
8.8200e+03,6.1136e-06
8.8300e+03,6.1068e-06
8.8400e+03,6.0858e-06
8.8500e+03,6.0591e-06
8.8600e+03,6.0340e-06
8.8700e+03,6.0150e-06
8.8800e+03,6.0038e-06
8.8900e+03,5.9994e-06
8.9000e+03,5.9989e-06
8.9100e+03,5.9993e-06
8.9200e+03,5.9974e-06
8.9300e+03,5.9915e-06
8.9400e+03,5.9816e-06
8.9500e+03,5.9694e-06
8.9600e+03,5.9582e-06
8.9700e+03,5.9515e-06
8.9800e+03,5.9524e-06
8.9900e+03,5.9627e-06
9.0000e+03,5.9826e-06
9.0100e+03,6.0112e-06
9.0200e+03,6.0468e-06
9.0300e+03,6.0876e-06
9.0400e+03,6.1313e-06
9.0500e+03,6.1753e-06
9.0600e+03,6.2169e-06
9.0700e+03,6.2530e-06
