# Time , Side-Flux
0.0000e+00,0.0000e+00
1.0000e+01,1.6399e-08
2.0000e+01,3.2534e-08
3.0000e+01,4.8160e-08
4.0000e+01,6.3057e-08
5.0000e+01,7.7050e-08
6.0000e+01,9.0010e-08
7.0000e+01,1.0186e-07
8.0000e+01,1.1256e-07
9.0000e+01,1.2213e-07
1.0000e+02,1.3061e-07
1.1000e+02,1.3807e-07
1.2000e+02,1.4461e-07
1.3000e+02,1.5033e-07
1.4000e+02,1.5531e-07
1.5000e+02,1.5967e-07
1.6000e+02,1.6348e-07
1.7000e+02,1.6682e-07
1.8000e+02,1.6977e-07
1.9000e+02,1.7238e-07
2.0000e+02,1.7470e-07
2.1000e+02,1.7677e-07
2.2000e+02,1.7862e-07
2.3000e+02,1.8028e-07
2.4000e+02,1.8177e-07
2.5000e+02,1.8312e-07
2.6000e+02,1.8433e-07
2.7000e+02,1.8543e-07
2.8000e+02,1.8642e-07
2.9000e+02,1.8732e-07
3.0000e+02,1.8813e-07
3.1000e+02,1.8887e-07
3.2000e+02,1.8954e-07
3.3000e+02,1.9015e-07
3.4000e+02,1.9070e-07
3.5000e+02,1.9120e-07
3.6000e+02,1.9166e-07
3.7000e+02,1.9207e-07
3.8000e+02,1.9244e-07
3.9000e+02,1.9277e-07
4.0000e+02,1.9307e-07
4.1000e+02,1.9333e-07
4.2000e+02,1.9357e-07
4.3000e+02,1.9377e-07
4.4000e+02,1.9396e-07
4.5000e+02,1.9412e-07
4.6000e+02,1.9426e-07
4.7000e+02,1.9438e-07
4.8000e+02,1.9449e-07
4.9000e+02,1.9458e-07
5.0000e+02,1.9467e-07
5.1000e+02,1.9474e-07
5.2000e+02,1.9481e-07
5.3000e+02,1.9488e-07
5.4000e+02,1.9494e-07
5.5000e+02,1.9499e-07
5.6000e+02,1.9505e-07
5.7000e+02,1.9511e-07
5.8000e+02,1.9517e-07
5.9000e+02,1.9523e-07
6.0000e+02,1.9530e-07
6.1000e+02,1.9536e-07
6.2000e+02,1.9543e-07
6.3000e+02,1.9550e-07
6.4000e+02,1.9557e-07
6.5000e+02,1.9564e-07
6.6000e+02,1.9570e-07
6.7000e+02,1.9576e-07
6.8000e+02,1.9581e-07
6.9000e+02,1.9585e-07
7.0000e+02,1.9588e-07
7.1000e+02,1.9591e-07
7.2000e+02,1.9593e-07
7.3000e+02,1.9595e-07
7.4000e+02,1.9598e-07
7.5000e+02,1.9602e-07
7.6000e+02,1.9606e-07
7.7000e+02,1.9612e-07
7.8000e+02,1.9620e-07
7.9000e+02,1.9629e-07
8.0000e+02,1.9640e-07
8.1000e+02,1.9652e-07
8.2000e+02,1.9664e-07
8.3000e+02,1.9677e-07
8.4000e+02,1.9689e-07
8.5000e+02,1.9700e-07
8.6000e+02,1.9710e-07
8.7000e+02,1.9717e-07
8.8000e+02,1.9721e-07
8.9000e+02,1.9722e-07
9.0000e+02,1.9719e-07
9.1000e+02,1.9712e-07
9.2000e+02,1.9701e-07
9.3000e+02,1.9685e-07
9.4000e+02,1.9666e-07
9.5000e+02,1.9644e-07
9.6000e+02,1.9618e-07
9.7000e+02,1.9589e-07
9.8000e+02,1.9559e-07
9.9000e+02,1.9528e-07
1.0000e+03,1.9496e-07
1.0100e+03,1.9464e-07
1.0200e+03,1.9434e-07
1.0300e+03,1.9405e-07
1.0400e+03,1.9380e-07
1.0500e+03,1.9357e-07
1.0600e+03,1.9339e-07
1.0700e+03,1.9324e-07
1.0800e+03,1.9315e-07
1.0900e+03,1.9311e-07
1.1000e+03,1.9312e-07
1.1100e+03,1.9319e-07
1.1200e+03,1.9332e-07
1.1300e+03,1.9350e-07
1.1400e+03,1.9373e-07
1.1500e+03,1.9400e-07
1.1600e+03,1.9431e-07
1.1700e+03,1.9465e-07
1.1800e+03,1.9500e-07
1.1900e+03,1.9535e-07
1.2000e+03,1.9570e-07
1.2100e+03,1.9603e-07
1.2200e+03,1.9635e-07
1.2300e+03,1.9663e-07
1.2400e+03,1.9689e-07
1.2500e+03,1.9711e-07
1.2600e+03,1.9732e-07
1.2700e+03,1.9751e-07
1.2800e+03,1.9768e-07
1.2900e+03,1.9785e-07
1.3000e+03,1.9803e-07
1.3100e+03,1.9820e-07
1.3200e+03,1.9839e-07
1.3300e+03,1.9858e-07
1.3400e+03,1.9878e-07
1.3500e+03,1.9898e-07
1.3600e+03,1.9918e-07
1.3700e+03,1.9938e-07
1.3800e+03,1.9957e-07
1.3900e+03,1.9974e-07
1.4000e+03,1.9989e-07
1.4100e+03,2.0001e-07
1.4200e+03,2.0011e-07
1.4300e+03,2.0017e-07
1.4400e+03,2.0021e-07
1.4500e+03,2.0022e-07
1.4600e+03,2.0021e-07
1.4700e+03,2.0018e-07
1.4800e+03,2.0013e-07
1.4900e+03,2.0008e-07
1.5000e+03,2.0002e-07
1.5100e+03,1.9995e-07
1.5200e+03,1.9989e-07
1.5300e+03,1.9983e-07
1.5400e+03,1.9977e-07
1.5500e+03,1.9971e-07
1.5600e+03,1.9966e-07
1.5700e+03,1.9960e-07
1.5800e+03,1.9954e-07
1.5900e+03,1.9948e-07
1.6000e+03,1.9941e-07
1.6100e+03,1.9933e-07
1.6200e+03,1.9924e-07
1.6300e+03,1.9915e-07
1.6400e+03,1.9904e-07
1.6500e+03,1.9894e-07
1.6600e+03,1.9882e-07
1.6700e+03,1.9871e-07
1.6800e+03,1.9860e-07
1.6900e+03,1.9849e-07
1.7000e+03,1.9840e-07
1.7100e+03,1.9831e-07
1.7200e+03,1.9824e-07
1.7300e+03,1.9818e-07
1.7400e+03,1.9813e-07
1.7500e+03,1.9810e-07
1.7600e+03,1.9809e-07
1.7700e+03,1.9809e-07
1.7800e+03,1.9811e-07
1.7900e+03,1.9814e-07
1.8000e+03,1.9818e-07
1.8100e+03,1.9822e-07
1.8200e+03,1.9827e-07
1.8300e+03,1.9832e-07
1.8400e+03,1.9837e-07
1.8500e+03,1.9841e-07
1.8600e+03,1.9845e-07
1.8700e+03,1.9846e-07
1.8800e+03,1.9846e-07
1.8900e+03,1.9843e-07
1.9000e+03,1.9837e-07
1.9100e+03,1.9828e-07
1.9200e+03,1.9815e-07
1.9300e+03,1.9799e-07
1.9400e+03,1.9780e-07
1.9500e+03,1.9758e-07
1.9600e+03,1.9733e-07
1.9700e+03,1.9708e-07
1.9800e+03,1.9681e-07
1.9900e+03,1.9655e-07
2.0000e+03,1.9628e-07
2.0100e+03,1.9602e-07
2.0200e+03,1.9577e-07
2.0300e+03,1.9551e-07
2.0400e+03,1.9527e-07
2.0500e+03,1.9501e-07
2.0600e+03,1.9476e-07
2.0700e+03,1.9449e-07
2.0800e+03,1.9422e-07
2.0900e+03,1.9395e-07
2.1000e+03,1.9367e-07
2.1100e+03,1.9339e-07
2.1200e+03,1.9313e-07
2.1300e+03,1.9289e-07
2.1400e+03,1.9268e-07
2.1500e+03,1.9252e-07
2.1600e+03,1.9241e-07
2.1700e+03,1.9237e-07
2.1800e+03,1.9240e-07
2.1900e+03,1.9251e-07
2.2000e+03,1.9269e-07
2.2100e+03,1.9294e-07
2.2200e+03,1.9325e-07
2.2300e+03,1.9361e-07
2.2400e+03,1.9401e-07
2.2500e+03,1.9442e-07
2.2600e+03,1.9484e-07
2.2700e+03,1.9524e-07
2.2800e+03,1.9561e-07
2.2900e+03,1.9593e-07
2.3000e+03,1.9620e-07
2.3100e+03,1.9640e-07
2.3200e+03,1.9654e-07
2.3300e+03,1.9662e-07
2.3400e+03,1.9665e-07
2.3500e+03,1.9664e-07
2.3600e+03,1.9659e-07
2.3700e+03,1.9653e-07
2.3800e+03,1.9646e-07
2.3900e+03,1.9640e-07
2.4000e+03,1.9634e-07
2.4100e+03,1.9630e-07
2.4200e+03,1.9628e-07
2.4300e+03,1.9627e-07
2.4400e+03,1.9629e-07
2.4500e+03,1.9631e-07
2.4600e+03,1.9634e-07
2.4700e+03,1.9637e-07
2.4800e+03,1.9640e-07
2.4900e+03,1.9643e-07
2.5000e+03,1.9645e-07
2.5100e+03,1.9647e-07
2.5200e+03,1.9647e-07
2.5300e+03,1.9647e-07
2.5400e+03,1.9646e-07
2.5500e+03,1.9645e-07
2.5600e+03,1.9643e-07
2.5700e+03,1.9641e-07
2.5800e+03,1.9638e-07
2.5900e+03,1.9635e-07
2.6000e+03,1.9632e-07
2.6100e+03,1.9629e-07
2.6200e+03,1.9626e-07
2.6300e+03,1.9623e-07
2.6400e+03,1.9621e-07
2.6500e+03,1.9618e-07
2.6600e+03,1.9615e-07
2.6700e+03,1.9612e-07
2.6800e+03,1.9608e-07
2.6900e+03,1.9604e-07
2.7000e+03,1.9599e-07
2.7100e+03,1.9594e-07
2.7200e+03,1.9588e-07
2.7300e+03,1.9582e-07
2.7400e+03,1.9575e-07
2.7500e+03,1.9568e-07
2.7600e+03,1.9561e-07
2.7700e+03,1.9553e-07
2.7800e+03,1.9546e-07
2.7900e+03,1.9538e-07
2.8000e+03,1.9530e-07
2.8100e+03,1.9522e-07
2.8200e+03,1.9512e-07
2.8300e+03,1.9501e-07
2.8400e+03,1.9488e-07
2.8500e+03,1.9473e-07
2.8600e+03,1.9456e-07
2.8700e+03,1.9437e-07
2.8800e+03,1.9417e-07
2.8900e+03,1.9395e-07
2.9000e+03,1.9373e-07
2.9100e+03,1.9352e-07
2.9200e+03,1.9333e-07
2.9300e+03,1.9317e-07
2.9400e+03,1.9305e-07
2.9500e+03,1.9298e-07
2.9600e+03,1.9298e-07
2.9700e+03,1.9304e-07
2.9800e+03,1.9318e-07
2.9900e+03,1.9339e-07
3.0000e+03,1.9367e-07
3.0100e+03,1.9401e-07
3.0200e+03,1.9441e-07
3.0300e+03,1.9486e-07
3.0400e+03,1.9533e-07
3.0500e+03,1.9582e-07
3.0600e+03,1.9631e-07
3.0700e+03,1.9678e-07
3.0800e+03,1.9721e-07
3.0900e+03,1.9761e-07
3.1000e+03,1.9795e-07
3.1100e+03,1.9822e-07
3.1200e+03,1.9843e-07
3.1300e+03,1.9857e-07
3.1400e+03,1.9864e-07
3.1500e+03,1.9864e-07
3.1600e+03,1.9859e-07
3.1700e+03,1.9848e-07
3.1800e+03,1.9832e-07
3.1900e+03,1.9813e-07
3.2000e+03,1.9792e-07
3.2100e+03,1.9770e-07
3.2200e+03,1.9747e-07
3.2300e+03,1.9725e-07
3.2400e+03,1.9704e-07
3.2500e+03,1.9686e-07
3.2600e+03,1.9671e-07
3.2700e+03,1.9660e-07
3.2800e+03,1.9652e-07
3.2900e+03,1.9648e-07
3.3000e+03,1.9648e-07
3.3100e+03,1.9651e-07
3.3200e+03,1.9657e-07
3.3300e+03,1.9666e-07
3.3400e+03,1.9678e-07
3.3500e+03,1.9690e-07
3.3600e+03,1.9704e-07
3.3700e+03,1.9718e-07
3.3800e+03,1.9730e-07
3.3900e+03,1.9742e-07
3.4000e+03,1.9751e-07
3.4100e+03,1.9758e-07
3.4200e+03,1.9763e-07
3.4300e+03,1.9764e-07
3.4400e+03,1.9764e-07
3.4500e+03,1.9761e-07
3.4600e+03,1.9756e-07
3.4700e+03,1.9751e-07
3.4800e+03,1.9747e-07
3.4900e+03,1.9743e-07
3.5000e+03,1.9740e-07
3.5100e+03,1.9740e-07
3.5200e+03,1.9742e-07
3.5300e+03,1.9747e-07
3.5400e+03,1.9755e-07
3.5500e+03,1.9765e-07
3.5600e+03,1.9778e-07
3.5700e+03,1.9791e-07
3.5800e+03,1.9806e-07
3.5900e+03,1.9820e-07
3.6000e+03,1.9833e-07
3.6100e+03,1.9845e-07
3.6200e+03,1.9855e-07
3.6300e+03,1.9861e-07
3.6400e+03,1.9865e-07
3.6500e+03,1.9865e-07
3.6600e+03,1.9862e-07
3.6700e+03,1.9856e-07
3.6800e+03,1.9847e-07
3.6900e+03,1.9835e-07
3.7000e+03,1.9822e-07
3.7100e+03,1.9808e-07
3.7200e+03,1.9794e-07
3.7300e+03,1.9779e-07
3.7400e+03,1.9766e-07
3.7500e+03,1.9753e-07
3.7600e+03,1.9743e-07
3.7700e+03,1.9733e-07
3.7800e+03,1.9725e-07
3.7900e+03,1.9718e-07
3.8000e+03,1.9711e-07
3.8100e+03,1.9704e-07
3.8200e+03,1.9698e-07
3.8300e+03,1.9691e-07
3.8400e+03,1.9683e-07
3.8500e+03,1.9674e-07
3.8600e+03,1.9664e-07
3.8700e+03,1.9654e-07
3.8800e+03,1.9643e-07
3.8900e+03,1.9633e-07
3.9000e+03,1.9624e-07
3.9100e+03,1.9616e-07
3.9200e+03,1.9610e-07
3.9300e+03,1.9605e-07
3.9400e+03,1.9604e-07
3.9500e+03,1.9604e-07
3.9600e+03,1.9607e-07
3.9700e+03,1.9612e-07
3.9800e+03,1.9619e-07
3.9900e+03,1.9628e-07
4.0000e+03,1.9637e-07
4.0100e+03,1.9646e-07
4.0200e+03,1.9656e-07
4.0300e+03,1.9664e-07
4.0400e+03,1.9672e-07
4.0500e+03,1.9679e-07
4.0600e+03,1.9684e-07
4.0700e+03,1.9689e-07
4.0800e+03,1.9692e-07
4.0900e+03,1.9694e-07
4.1000e+03,1.9695e-07
4.1100e+03,1.9696e-07
4.1200e+03,1.9696e-07
4.1300e+03,1.9696e-07
4.1400e+03,1.9696e-07
4.1500e+03,1.9696e-07
4.1600e+03,1.9696e-07
4.1700e+03,1.9697e-07
4.1800e+03,1.9698e-07
4.1900e+03,1.9699e-07
4.2000e+03,1.9700e-07
4.2100e+03,1.9701e-07
4.2200e+03,1.9702e-07
4.2300e+03,1.9703e-07
4.2400e+03,1.9703e-07
4.2500e+03,1.9704e-07
4.2600e+03,1.9704e-07
4.2700e+03,1.9703e-07
4.2800e+03,1.9702e-07
4.2900e+03,1.9700e-07
4.3000e+03,1.9698e-07
4.3100e+03,1.9696e-07
4.3200e+03,1.9693e-07
4.3300e+03,1.9690e-07
4.3400e+03,1.9686e-07
4.3500e+03,1.9682e-07
4.3600e+03,1.9678e-07
4.3700e+03,1.9674e-07
4.3800e+03,1.9669e-07
4.3900e+03,1.9665e-07
4.4000e+03,1.9660e-07
4.4100e+03,1.9656e-07
4.4200e+03,1.9652e-07
4.4300e+03,1.9649e-07
4.4400e+03,1.9646e-07
4.4500e+03,1.9643e-07
4.4600e+03,1.9641e-07
4.4700e+03,1.9640e-07
4.4800e+03,1.9639e-07
4.4900e+03,1.9640e-07
4.5000e+03,1.9641e-07
4.5100e+03,1.9643e-07
4.5200e+03,1.9645e-07
4.5300e+03,1.9648e-07
4.5400e+03,1.9652e-07
4.5500e+03,1.9656e-07
4.5600e+03,1.9660e-07
4.5700e+03,1.9665e-07
4.5800e+03,1.9669e-07
4.5900e+03,1.9673e-07
4.6000e+03,1.9677e-07
4.6100e+03,1.9680e-07
4.6200e+03,1.9683e-07
4.6300e+03,1.9686e-07
4.6400e+03,1.9688e-07
4.6500e+03,1.9690e-07
4.6600e+03,1.9691e-07
4.6700e+03,1.9692e-07
4.6800e+03,1.9693e-07
4.6900e+03,1.9693e-07
4.7000e+03,1.9694e-07
4.7100e+03,1.9694e-07
4.7200e+03,1.9695e-07
4.7300e+03,1.9695e-07
4.7400e+03,1.9695e-07
4.7500e+03,1.9694e-07
4.7600e+03,1.9693e-07
4.7700e+03,1.9691e-07
4.7800e+03,1.9688e-07
4.7900e+03,1.9684e-07
4.8000e+03,1.9679e-07
4.8100e+03,1.9672e-07
4.8200e+03,1.9663e-07
4.8300e+03,1.9653e-07
4.8400e+03,1.9642e-07
4.8500e+03,1.9630e-07
4.8600e+03,1.9617e-07
4.8700e+03,1.9604e-07
4.8800e+03,1.9591e-07
4.8900e+03,1.9578e-07
4.9000e+03,1.9568e-07
4.9100e+03,1.9558e-07
4.9200e+03,1.9551e-07
4.9300e+03,1.9547e-07
4.9400e+03,1.9545e-07
4.9500e+03,1.9546e-07
4.9600e+03,1.9549e-07
4.9700e+03,1.9554e-07
4.9800e+03,1.9560e-07
4.9900e+03,1.9567e-07
5.0000e+03,1.9573e-07
5.0100e+03,1.9578e-07
5.0200e+03,1.9578e-07
5.0300e+03,1.9574e-07
5.0400e+03,1.9564e-07
5.0500e+03,1.9545e-07
5.0600e+03,1.9519e-07
5.0700e+03,1.9482e-07
5.0800e+03,1.9437e-07
5.0900e+03,1.9382e-07
5.1000e+03,1.9320e-07
5.1100e+03,1.9252e-07
5.1200e+03,1.9179e-07
5.1300e+03,1.9106e-07
5.1400e+03,1.9034e-07
5.1500e+03,1.8967e-07
5.1600e+03,1.8907e-07
5.1700e+03,1.8857e-07
5.1800e+03,1.8820e-07
5.1900e+03,1.8797e-07
5.2000e+03,1.8789e-07
5.2100e+03,1.8797e-07
5.2200e+03,1.8821e-07
5.2300e+03,1.8860e-07
5.2400e+03,1.8913e-07
5.2500e+03,1.8977e-07
5.2600e+03,1.9052e-07
5.2700e+03,1.9135e-07
5.2800e+03,1.9224e-07
5.2900e+03,1.9316e-07
5.3000e+03,1.9411e-07
5.3100e+03,1.9505e-07
5.3200e+03,1.9598e-07
5.3300e+03,1.9687e-07
5.3400e+03,1.9772e-07
5.3500e+03,1.9850e-07
5.3600e+03,1.9920e-07
5.3700e+03,1.9982e-07
5.3800e+03,2.0034e-07
5.3900e+03,2.0074e-07
5.4000e+03,2.0102e-07
5.4100e+03,2.0118e-07
5.4200e+03,2.0122e-07
5.4300e+03,2.0113e-07
5.4400e+03,2.0094e-07
5.4500e+03,2.0066e-07
5.4600e+03,2.0030e-07
5.4700e+03,1.9988e-07
5.4800e+03,1.9944e-07
5.4900e+03,1.9899e-07
5.5000e+03,1.9855e-07
5.5100e+03,1.9814e-07
5.5200e+03,1.9777e-07
5.5300e+03,1.9745e-07
5.5400e+03,1.9717e-07
5.5500e+03,1.9695e-07
5.5600e+03,1.9678e-07
5.5700e+03,1.9665e-07
5.5800e+03,1.9655e-07
5.5900e+03,1.9647e-07
5.6000e+03,1.9642e-07
5.6100e+03,1.9638e-07
5.6200e+03,1.9635e-07
5.6300e+03,1.9633e-07
5.6400e+03,1.9634e-07
5.6500e+03,1.9636e-07
5.6600e+03,1.9641e-07
5.6700e+03,1.9649e-07
5.6800e+03,1.9660e-07
5.6900e+03,1.9675e-07
5.7000e+03,1.9694e-07
5.7100e+03,1.9715e-07
5.7200e+03,1.9739e-07
5.7300e+03,1.9764e-07
5.7400e+03,1.9790e-07
5.7500e+03,1.9814e-07
5.7600e+03,1.9836e-07
5.7700e+03,1.9854e-07
5.7800e+03,1.9867e-07
5.7900e+03,1.9875e-07
5.8000e+03,1.9876e-07
5.8100e+03,1.9869e-07
5.8200e+03,1.9856e-07
5.8300e+03,1.9836e-07
5.8400e+03,1.9809e-07
5.8500e+03,1.9777e-07
5.8600e+03,1.9739e-07
5.8700e+03,1.9698e-07
5.8800e+03,1.9653e-07
5.8900e+03,1.9606e-07
5.9000e+03,1.9559e-07
5.9100e+03,1.9512e-07
5.9200e+03,1.9467e-07
5.9300e+03,1.9425e-07
5.9400e+03,1.9387e-07
5.9500e+03,1.9354e-07
5.9600e+03,1.9328e-07
5.9700e+03,1.9310e-07
5.9800e+03,1.9300e-07
5.9900e+03,1.9300e-07
6.0000e+03,1.9308e-07
6.0100e+03,1.9326e-07
6.0200e+03,1.9353e-07
6.0300e+03,1.9389e-07
6.0400e+03,1.9431e-07
6.0500e+03,1.9480e-07
6.0600e+03,1.9534e-07
6.0700e+03,1.9591e-07
6.0800e+03,1.9650e-07
6.0900e+03,1.9711e-07
6.1000e+03,1.9772e-07
6.1100e+03,1.9832e-07
6.1200e+03,1.9891e-07
6.1300e+03,1.9947e-07
6.1400e+03,2.0002e-07
6.1500e+03,2.0053e-07
6.1600e+03,2.0102e-07
6.1700e+03,2.0147e-07
6.1800e+03,2.0189e-07
6.1900e+03,2.0229e-07
6.2000e+03,2.0265e-07
6.2100e+03,2.0298e-07
6.2200e+03,2.0329e-07
6.2300e+03,2.0358e-07
6.2400e+03,2.0387e-07
6.2500e+03,2.0415e-07
6.2600e+03,2.0444e-07
6.2700e+03,2.0475e-07
6.2800e+03,2.0509e-07
6.2900e+03,2.0546e-07
6.3000e+03,2.0588e-07
6.3100e+03,2.0633e-07
6.3200e+03,2.0683e-07
6.3300e+03,2.0737e-07
6.3400e+03,2.0794e-07
6.3500e+03,2.0853e-07
6.3600e+03,2.0914e-07
6.3700e+03,2.0975e-07
6.3800e+03,2.1035e-07
6.3900e+03,2.1093e-07
6.4000e+03,2.1148e-07
6.4100e+03,2.1201e-07
6.4200e+03,2.1249e-07
6.4300e+03,2.1294e-07
6.4400e+03,2.1336e-07
6.4500e+03,2.1375e-07
6.4600e+03,2.1411e-07
6.4700e+03,2.1446e-07
6.4800e+03,2.1479e-07
6.4900e+03,2.1510e-07
6.5000e+03,2.1541e-07
6.5100e+03,2.1570e-07
6.5200e+03,2.1598e-07
6.5300e+03,2.1624e-07
6.5400e+03,2.1648e-07
6.5500e+03,2.1669e-07
6.5600e+03,2.1686e-07
6.5700e+03,2.1700e-07
6.5800e+03,2.1709e-07
6.5900e+03,2.1714e-07
6.6000e+03,2.1715e-07
6.6100e+03,2.1711e-07
6.6200e+03,2.1703e-07
6.6300e+03,2.1690e-07
6.6400e+03,2.1674e-07
6.6500e+03,2.1654e-07
6.6600e+03,2.1631e-07
6.6700e+03,2.1604e-07
6.6800e+03,2.1574e-07
6.6900e+03,2.1542e-07
6.7000e+03,2.1507e-07
6.7100e+03,2.1469e-07
6.7200e+03,2.1430e-07
6.7300e+03,2.1388e-07
6.7400e+03,2.1346e-07
6.7500e+03,2.1302e-07
6.7600e+03,2.1258e-07
6.7700e+03,2.1213e-07
6.7800e+03,2.1169e-07
6.7900e+03,2.1125e-07
6.8000e+03,2.1081e-07
6.8100e+03,2.1038e-07
6.8200e+03,2.0996e-07
6.8300e+03,2.0956e-07
6.8400e+03,2.0917e-07
6.8500e+03,2.0879e-07
6.8600e+03,2.0844e-07
6.8700e+03,2.0813e-07
6.8800e+03,2.0784e-07
6.8900e+03,2.0760e-07
6.9000e+03,2.0741e-07
6.9100e+03,2.0727e-07
6.9200e+03,2.0720e-07
6.9300e+03,2.0720e-07
6.9400e+03,2.0726e-07
6.9500e+03,2.0740e-07
6.9600e+03,2.0761e-07
6.9700e+03,2.0788e-07
6.9800e+03,2.0820e-07
6.9900e+03,2.0858e-07
7.0000e+03,2.0899e-07
7.0100e+03,2.0943e-07
7.0200e+03,2.0989e-07
7.0300e+03,2.1035e-07
7.0400e+03,2.1082e-07
7.0500e+03,2.1129e-07
7.0600e+03,2.1175e-07
7.0700e+03,2.1220e-07
7.0800e+03,2.1264e-07
7.0900e+03,2.1307e-07
7.1000e+03,2.1349e-07
7.1100e+03,2.1390e-07
7.1200e+03,2.1432e-07
7.1300e+03,2.1473e-07
7.1400e+03,2.1515e-07
7.1500e+03,2.1557e-07
7.1600e+03,2.1600e-07
7.1700e+03,2.1644e-07
7.1800e+03,2.1688e-07
7.1900e+03,2.1731e-07
7.2000e+03,2.1775e-07
7.2100e+03,2.1817e-07
7.2200e+03,2.1857e-07
7.2300e+03,2.1894e-07
7.2400e+03,2.1926e-07
7.2500e+03,2.1952e-07
7.2600e+03,2.1971e-07
7.2700e+03,2.1982e-07
7.2800e+03,2.1984e-07
7.2900e+03,2.1976e-07
7.3000e+03,2.1959e-07
7.3100e+03,2.1932e-07
7.3200e+03,2.1895e-07
7.3300e+03,2.1849e-07
7.3400e+03,2.1794e-07
7.3500e+03,2.1732e-07
7.3600e+03,2.1664e-07
7.3700e+03,2.1590e-07
7.3800e+03,2.1510e-07
7.3900e+03,2.1426e-07
7.4000e+03,2.1338e-07
7.4100e+03,2.1246e-07
7.4200e+03,2.1151e-07
7.4300e+03,2.1054e-07
7.4400e+03,2.0954e-07
7.4500e+03,2.0852e-07
7.4600e+03,2.0750e-07
7.4700e+03,2.0648e-07
7.4800e+03,2.0546e-07
7.4900e+03,2.0447e-07
7.5000e+03,2.0350e-07
7.5100e+03,2.0257e-07
7.5200e+03,2.0168e-07
7.5300e+03,2.0085e-07
7.5400e+03,2.0007e-07
7.5500e+03,1.9934e-07
7.5600e+03,1.9867e-07
7.5700e+03,1.9805e-07
7.5800e+03,1.9747e-07
7.5900e+03,1.9693e-07
7.6000e+03,1.9643e-07
7.6100e+03,1.9595e-07
7.6200e+03,1.9550e-07
7.6300e+03,1.9506e-07
7.6400e+03,1.9463e-07
7.6500e+03,1.9421e-07
7.6600e+03,1.9379e-07
7.6700e+03,1.9339e-07
7.6800e+03,1.9299e-07
7.6900e+03,1.9259e-07
7.7000e+03,1.9221e-07
7.7100e+03,1.9183e-07
7.7200e+03,1.9146e-07
7.7300e+03,1.9110e-07
7.7400e+03,1.9076e-07
7.7500e+03,1.9043e-07
7.7600e+03,1.9011e-07
7.7700e+03,1.8980e-07
7.7800e+03,1.8951e-07
7.7900e+03,1.8923e-07
7.8000e+03,1.8897e-07
7.8100e+03,1.8871e-07
7.8200e+03,1.8846e-07
7.8300e+03,1.8823e-07
7.8400e+03,1.8799e-07
7.8500e+03,1.8777e-07
7.8600e+03,1.8755e-07
7.8700e+03,1.8733e-07
7.8800e+03,1.8713e-07
7.8900e+03,1.8692e-07
7.9000e+03,1.8673e-07
7.9100e+03,1.8653e-07
7.9200e+03,1.8634e-07
7.9300e+03,1.8616e-07
7.9400e+03,1.8597e-07
7.9500e+03,1.8579e-07
7.9600e+03,1.8560e-07
7.9700e+03,1.8540e-07
7.9800e+03,1.8520e-07
7.9900e+03,1.8498e-07
8.0000e+03,1.8476e-07
8.0100e+03,1.8451e-07
8.0200e+03,1.8426e-07
8.0300e+03,1.8398e-07
8.0400e+03,1.8369e-07
8.0500e+03,1.8339e-07
8.0600e+03,1.8307e-07
8.0700e+03,1.8273e-07
8.0800e+03,1.8238e-07
8.0900e+03,1.8201e-07
8.1000e+03,1.8164e-07
8.1100e+03,1.8125e-07
8.1200e+03,1.8085e-07
8.1300e+03,1.8044e-07
8.1400e+03,1.8002e-07
8.1500e+03,1.7960e-07
8.1600e+03,1.7917e-07
8.1700e+03,1.7872e-07
8.1800e+03,1.7826e-07
8.1900e+03,1.7778e-07
8.2000e+03,1.7727e-07
8.2100e+03,1.7672e-07
8.2200e+03,1.7613e-07
8.2300e+03,1.7548e-07
8.2400e+03,1.7479e-07
8.2500e+03,1.7404e-07
8.2600e+03,1.7324e-07
8.2700e+03,1.7239e-07
8.2800e+03,1.7152e-07
8.2900e+03,1.7062e-07
8.3000e+03,1.6972e-07
8.3100e+03,1.6884e-07
8.3200e+03,1.6798e-07
8.3300e+03,1.6717e-07
8.3400e+03,1.6641e-07
8.3500e+03,1.6570e-07
8.3600e+03,1.6507e-07
8.3700e+03,1.6449e-07
8.3800e+03,1.6397e-07
8.3900e+03,1.6351e-07
8.4000e+03,1.6310e-07
8.4100e+03,1.6272e-07
8.4200e+03,1.6237e-07
8.4300e+03,1.6205e-07
8.4400e+03,1.6175e-07
8.4500e+03,1.6146e-07
8.4600e+03,1.6118e-07
8.4700e+03,1.6091e-07
8.4800e+03,1.6067e-07
8.4900e+03,1.6044e-07
8.5000e+03,1.6025e-07
8.5100e+03,1.6010e-07
8.5200e+03,1.5999e-07
8.5300e+03,1.5995e-07
8.5400e+03,1.5998e-07
8.5500e+03,1.6007e-07
8.5600e+03,1.6025e-07
8.5700e+03,1.6050e-07
8.5800e+03,1.6083e-07
8.5900e+03,1.6122e-07
8.6000e+03,1.6167e-07
8.6100e+03,1.6216e-07
8.6200e+03,1.6269e-07
8.6300e+03,1.6325e-07
8.6400e+03,1.6381e-07
8.6500e+03,1.6439e-07
8.6600e+03,1.6497e-07
8.6700e+03,1.6555e-07
8.6800e+03,1.6615e-07
8.6900e+03,1.6677e-07
8.7000e+03,1.6742e-07
8.7100e+03,1.6811e-07
8.7200e+03,1.6885e-07
8.7300e+03,1.6963e-07
8.7400e+03,1.7047e-07
8.7500e+03,1.7134e-07
8.7600e+03,1.7225e-07
8.7700e+03,1.7317e-07
8.7800e+03,1.7410e-07
8.7900e+03,1.7500e-07
8.8000e+03,1.7587e-07
8.8100e+03,1.7670e-07
8.8200e+03,1.7747e-07
8.8300e+03,1.7818e-07
8.8400e+03,1.7884e-07
8.8500e+03,1.7945e-07
8.8600e+03,1.8003e-07
8.8700e+03,1.8057e-07
8.8800e+03,1.8111e-07
8.8900e+03,1.8164e-07
8.9000e+03,1.8219e-07
8.9100e+03,1.8277e-07
8.9200e+03,1.8339e-07
8.9300e+03,1.8406e-07
8.9400e+03,1.8479e-07
8.9500e+03,1.8559e-07
8.9600e+03,1.8647e-07
8.9700e+03,1.8742e-07
8.9800e+03,1.8846e-07
8.9900e+03,1.8958e-07
9.0000e+03,1.9078e-07
9.0100e+03,1.9204e-07
9.0200e+03,1.9336e-07
9.0300e+03,1.9473e-07
9.0400e+03,1.9612e-07
9.0500e+03,1.9753e-07
9.0600e+03,1.9894e-07
9.0700e+03,2.0033e-07
