# Time , Side-Flux
0.0000e+00,0.0000e+00
1.0000e+01,3.0657e-05
2.0000e+01,5.4006e-05
3.0000e+01,6.8278e-05
4.0000e+01,7.5646e-05
5.0000e+01,7.8889e-05
6.0000e+01,8.0030e-05
7.0000e+01,8.0261e-05
8.0000e+01,8.0187e-05
9.0000e+01,8.0068e-05
1.0000e+02,7.9992e-05
1.1000e+02,7.9965e-05
1.2000e+02,7.9973e-05
1.3000e+02,7.9997e-05
1.4000e+02,8.0024e-05
1.5000e+02,8.0049e-05
1.6000e+02,8.0069e-05
1.7000e+02,8.0084e-05
1.8000e+02,8.0095e-05
1.9000e+02,8.0103e-05
2.0000e+02,8.0110e-05
2.1000e+02,8.0115e-05
2.2000e+02,8.0120e-05
2.3000e+02,8.0125e-05
2.4000e+02,8.0130e-05
2.5000e+02,8.0134e-05
2.6000e+02,8.0135e-05
2.7000e+02,8.0136e-05
2.8000e+02,8.0136e-05
2.9000e+02,8.0134e-05
3.0000e+02,8.0132e-05
3.1000e+02,8.0133e-05
3.2000e+02,8.0131e-05
3.3000e+02,8.0119e-05
3.4000e+02,8.0096e-05
3.5000e+02,8.0070e-05
3.6000e+02,8.0044e-05
3.7000e+02,8.0006e-05
3.8000e+02,7.9947e-05
3.9000e+02,7.9866e-05
4.0000e+02,7.9774e-05
4.1000e+02,7.9677e-05
4.2000e+02,7.9579e-05
4.3000e+02,7.9482e-05
4.4000e+02,7.9388e-05
4.5000e+02,7.9305e-05
4.6000e+02,7.9244e-05
4.7000e+02,7.9209e-05
4.8000e+02,7.9198e-05
4.9000e+02,7.9200e-05
5.0000e+02,7.9207e-05
5.1000e+02,7.9214e-05
5.2000e+02,7.9218e-05
5.3000e+02,7.9219e-05
5.4000e+02,7.9220e-05
5.5000e+02,7.9220e-05
5.6000e+02,7.9218e-05
5.7000e+02,7.9208e-05
5.8000e+02,7.9184e-05
5.9000e+02,7.9136e-05
6.0000e+02,7.9043e-05
6.1000e+02,7.8894e-05
6.2000e+02,7.8722e-05
6.3000e+02,7.8583e-05
6.4000e+02,7.8495e-05
6.5000e+02,7.8400e-05
6.6000e+02,7.8215e-05
6.7000e+02,7.7925e-05
6.8000e+02,7.7621e-05
6.9000e+02,7.7450e-05
7.0000e+02,7.7468e-05
7.1000e+02,7.7593e-05
7.2000e+02,7.7693e-05
7.3000e+02,7.7676e-05
7.4000e+02,7.7544e-05
7.5000e+02,7.7382e-05
7.6000e+02,7.7274e-05
7.7000e+02,7.7249e-05
7.8000e+02,7.7290e-05
7.9000e+02,7.7341e-05
8.0000e+02,7.7317e-05
8.1000e+02,7.7147e-05
8.2000e+02,7.6834e-05
8.3000e+02,7.6446e-05
8.4000e+02,7.6091e-05
8.5000e+02,7.5882e-05
8.6000e+02,7.5866e-05
8.7000e+02,7.5974e-05
8.8000e+02,7.6083e-05
8.9000e+02,7.6121e-05
9.0000e+02,7.6072e-05
9.1000e+02,7.5916e-05
9.2000e+02,7.5620e-05
9.3000e+02,7.5208e-05
9.4000e+02,7.4763e-05
9.5000e+02,7.4354e-05
9.6000e+02,7.4005e-05
9.7000e+02,7.3690e-05
9.8000e+02,7.3414e-05
9.9000e+02,7.3228e-05
1.0000e+03,7.3135e-05
1.0100e+03,7.3078e-05
1.0200e+03,7.2988e-05
1.0300e+03,7.2772e-05
1.0400e+03,7.2395e-05
1.0500e+03,7.1912e-05
1.0600e+03,7.1400e-05
1.0700e+03,7.0916e-05
1.0800e+03,7.0474e-05
1.0900e+03,7.0030e-05
1.1000e+03,6.9573e-05
1.1100e+03,6.9231e-05
1.1200e+03,6.9128e-05
1.1300e+03,6.9216e-05
1.1400e+03,6.9362e-05
1.1500e+03,6.9491e-05
1.1600e+03,6.9600e-05
1.1700e+03,6.9689e-05
1.1800e+03,6.9735e-05
1.1900e+03,6.9733e-05
1.2000e+03,6.9706e-05
1.2100e+03,6.9667e-05
1.2200e+03,6.9608e-05
1.2300e+03,6.9507e-05
1.2400e+03,6.9332e-05
1.2500e+03,6.9076e-05
1.2600e+03,6.8800e-05
1.2700e+03,6.8602e-05
1.2800e+03,6.8545e-05
1.2900e+03,6.8610e-05
1.3000e+03,6.8723e-05
1.3100e+03,6.8813e-05
1.3200e+03,6.8851e-05
1.3300e+03,6.8831e-05
1.3400e+03,6.8746e-05
1.3500e+03,6.8574e-05
1.3600e+03,6.8318e-05
1.3700e+03,6.8039e-05
1.3800e+03,6.7817e-05
1.3900e+03,6.7685e-05
1.4000e+03,6.7633e-05
1.4100e+03,6.7630e-05
1.4200e+03,6.7637e-05
1.4300e+03,6.7616e-05
1.4400e+03,6.7565e-05
1.4500e+03,6.7510e-05
1.4600e+03,6.7470e-05
1.4700e+03,6.7449e-05
1.4800e+03,6.7442e-05
1.4900e+03,6.7442e-05
1.5000e+03,6.7443e-05
1.5100e+03,6.7441e-05
1.5200e+03,6.7433e-05
1.5300e+03,6.7418e-05
1.5400e+03,6.7395e-05
1.5500e+03,6.7367e-05
1.5600e+03,6.7335e-05
1.5700e+03,6.7300e-05
1.5800e+03,6.7267e-05
1.5900e+03,6.7240e-05
1.6000e+03,6.7214e-05
1.6100e+03,6.7171e-05
1.6200e+03,6.7084e-05
1.6300e+03,6.6931e-05
1.6400e+03,6.6713e-05
1.6500e+03,6.6465e-05
1.6600e+03,6.6236e-05
1.6700e+03,6.6075e-05
1.6800e+03,6.6007e-05
1.6900e+03,6.6037e-05
1.7000e+03,6.6122e-05
1.7100e+03,6.6184e-05
1.7200e+03,6.6182e-05
1.7300e+03,6.6133e-05
1.7400e+03,6.6060e-05
1.7500e+03,6.5986e-05
1.7600e+03,6.5945e-05
1.7700e+03,6.5947e-05
1.7800e+03,6.5977e-05
1.7900e+03,6.6013e-05
1.8000e+03,6.6028e-05
1.8100e+03,6.5984e-05
1.8200e+03,6.5856e-05
1.8300e+03,6.5651e-05
1.8400e+03,6.5383e-05
1.8500e+03,6.5084e-05
1.8600e+03,6.4828e-05
1.8700e+03,6.4690e-05
1.8800e+03,6.4670e-05
1.8900e+03,6.4718e-05
1.9000e+03,6.4785e-05
1.9100e+03,6.4847e-05
1.9200e+03,6.4890e-05
1.9300e+03,6.4888e-05
1.9400e+03,6.4814e-05
1.9500e+03,6.4677e-05
1.9600e+03,6.4520e-05
1.9700e+03,6.4357e-05
1.9800e+03,6.4163e-05
1.9900e+03,6.3924e-05
2.0000e+03,6.3658e-05
2.0100e+03,6.3377e-05
2.0200e+03,6.3105e-05
2.0300e+03,6.2895e-05
2.0400e+03,6.2803e-05
2.0500e+03,6.2817e-05
2.0600e+03,6.2872e-05
2.0700e+03,6.2940e-05
2.0800e+03,6.3030e-05
2.0900e+03,6.3104e-05
2.1000e+03,6.3104e-05
2.1100e+03,6.3031e-05
2.1200e+03,6.2946e-05
2.1300e+03,6.2875e-05
2.1400e+03,6.2774e-05
2.1500e+03,6.2608e-05
2.1600e+03,6.2422e-05
2.1700e+03,6.2278e-05
2.1800e+03,6.2169e-05
2.1900e+03,6.2062e-05
2.2000e+03,6.1966e-05
2.2100e+03,6.1920e-05
2.2200e+03,6.1942e-05
2.2300e+03,6.2008e-05
2.2400e+03,6.2071e-05
2.2500e+03,6.2091e-05
2.2600e+03,6.2012e-05
2.2700e+03,6.1813e-05
2.2800e+03,6.1567e-05
2.2900e+03,6.1380e-05
2.3000e+03,6.1279e-05
2.3100e+03,6.1201e-05
2.3200e+03,6.1086e-05
2.3300e+03,6.0922e-05
2.3400e+03,6.0739e-05
2.3500e+03,6.0592e-05
2.3600e+03,6.0522e-05
2.3700e+03,6.0526e-05
2.3800e+03,6.0551e-05
2.3900e+03,6.0561e-05
2.4000e+03,6.0565e-05
2.4100e+03,6.0591e-05
2.4200e+03,6.0635e-05
2.4300e+03,6.0660e-05
2.4400e+03,6.0644e-05
2.4500e+03,6.0601e-05
2.4600e+03,6.0553e-05
2.4700e+03,6.0508e-05
2.4800e+03,6.0471e-05
2.4900e+03,6.0450e-05
2.5000e+03,6.0445e-05
2.5100e+03,6.0453e-05
2.5200e+03,6.0464e-05
2.5300e+03,6.0470e-05
2.5400e+03,6.0464e-05
2.5500e+03,6.0440e-05
2.5600e+03,6.0390e-05
2.5700e+03,6.0311e-05
2.5800e+03,6.0203e-05
2.5900e+03,6.0073e-05
2.6000e+03,5.9938e-05
2.6100e+03,5.9813e-05
2.6200e+03,5.9713e-05
2.6300e+03,5.9651e-05
2.6400e+03,5.9632e-05
2.6500e+03,5.9651e-05
2.6600e+03,5.9695e-05
2.6700e+03,5.9727e-05
2.6800e+03,5.9715e-05
2.6900e+03,5.9682e-05
2.7000e+03,5.9674e-05
2.7100e+03,5.9692e-05
2.7200e+03,5.9677e-05
2.7300e+03,5.9544e-05
2.7400e+03,5.9265e-05
2.7500e+03,5.8913e-05
2.7600e+03,5.8583e-05
2.7700e+03,5.8318e-05
2.7800e+03,5.8132e-05
2.7900e+03,5.8025e-05
2.8000e+03,5.7986e-05
2.8100e+03,5.8001e-05
2.8200e+03,5.8063e-05
2.8300e+03,5.8155e-05
2.8400e+03,5.8242e-05
2.8500e+03,5.8295e-05
2.8600e+03,5.8321e-05
2.8700e+03,5.8355e-05
2.8800e+03,5.8412e-05
2.8900e+03,5.8452e-05
2.9000e+03,5.8383e-05
2.9100e+03,5.8125e-05
2.9200e+03,5.7690e-05
2.9300e+03,5.7199e-05
2.9400e+03,5.6809e-05
2.9500e+03,5.6622e-05
2.9600e+03,5.6667e-05
2.9700e+03,5.6937e-05
2.9800e+03,5.7395e-05
2.9900e+03,5.7918e-05
3.0000e+03,5.8305e-05
3.0100e+03,5.8399e-05
3.0200e+03,5.8218e-05
3.0300e+03,5.7900e-05
3.0400e+03,5.7551e-05
3.0500e+03,5.7202e-05
3.0600e+03,5.6878e-05
3.0700e+03,5.6639e-05
3.0800e+03,5.6496e-05
3.0900e+03,5.6347e-05
3.1000e+03,5.6024e-05
3.1100e+03,5.5424e-05
3.1200e+03,5.4565e-05
3.1300e+03,5.3577e-05
3.1400e+03,5.2647e-05
3.1500e+03,5.1895e-05
3.1600e+03,5.1320e-05
3.1700e+03,5.0855e-05
3.1800e+03,5.0476e-05
3.1900e+03,5.0231e-05
3.2000e+03,5.0174e-05
3.2100e+03,5.0269e-05
3.2200e+03,5.0432e-05
3.2300e+03,5.0610e-05
3.2400e+03,5.0803e-05
3.2500e+03,5.1003e-05
3.2600e+03,5.1159e-05
3.2700e+03,5.1221e-05
3.2800e+03,5.1187e-05
3.2900e+03,5.1082e-05
3.3000e+03,5.0920e-05
3.3100e+03,5.0706e-05
3.3200e+03,5.0453e-05
3.3300e+03,5.0182e-05
3.3400e+03,4.9916e-05
3.3500e+03,4.9673e-05
3.3600e+03,4.9480e-05
3.3700e+03,4.9359e-05
3.3800e+03,4.9299e-05
3.3900e+03,4.9276e-05
3.4000e+03,4.9280e-05
3.4100e+03,4.9312e-05
3.4200e+03,4.9375e-05
3.4300e+03,4.9468e-05
3.4400e+03,4.9600e-05
3.4500e+03,4.9794e-05
3.4600e+03,5.0077e-05
3.4700e+03,5.0453e-05
3.4800e+03,5.0860e-05
3.4900e+03,5.1153e-05
3.5000e+03,5.1205e-05
3.5100e+03,5.1043e-05
3.5200e+03,5.0828e-05
3.5300e+03,5.0676e-05
3.5400e+03,5.0584e-05
3.5500e+03,5.0498e-05
3.5600e+03,5.0402e-05
3.5700e+03,5.0312e-05
3.5800e+03,5.0239e-05
3.5900e+03,5.0179e-05
3.6000e+03,5.0127e-05
3.6100e+03,5.0076e-05
3.6200e+03,5.0020e-05
3.6300e+03,4.9954e-05
3.6400e+03,4.9865e-05
3.6500e+03,4.9741e-05
3.6600e+03,4.9574e-05
3.6700e+03,4.9372e-05
3.6800e+03,4.9157e-05
3.6900e+03,4.8964e-05
3.7000e+03,4.8817e-05
3.7100e+03,4.8718e-05
3.7200e+03,4.8648e-05
3.7300e+03,4.8573e-05
3.7400e+03,4.8472e-05
3.7500e+03,4.8355e-05
3.7600e+03,4.8251e-05
3.7700e+03,4.8206e-05
3.7800e+03,4.8237e-05
3.7900e+03,4.8319e-05
3.8000e+03,4.8409e-05
3.8100e+03,4.8480e-05
3.8200e+03,4.8539e-05
3.8300e+03,4.8593e-05
3.8400e+03,4.8616e-05
3.8500e+03,4.8575e-05
3.8600e+03,4.8483e-05
3.8700e+03,4.8389e-05
3.8800e+03,4.8322e-05
3.8900e+03,4.8246e-05
3.9000e+03,4.8084e-05
3.9100e+03,4.7792e-05
3.9200e+03,4.7397e-05
3.9300e+03,4.6996e-05
3.9400e+03,4.6726e-05
3.9500e+03,4.6686e-05
3.9600e+03,4.6869e-05
3.9700e+03,4.7230e-05
3.9800e+03,4.7778e-05
3.9900e+03,4.8539e-05
4.0000e+03,4.9429e-05
4.0100e+03,5.0239e-05
4.0200e+03,5.0774e-05
4.0300e+03,5.0987e-05
4.0400e+03,5.0973e-05
4.0500e+03,5.0855e-05
4.0600e+03,5.0714e-05
4.0700e+03,5.0600e-05
4.0800e+03,5.0566e-05
4.0900e+03,5.0651e-05
4.1000e+03,5.0889e-05
4.1100e+03,5.1340e-05
4.1200e+03,5.2045e-05
4.1300e+03,5.2983e-05
4.1400e+03,5.4045e-05
4.1500e+03,5.5054e-05
4.1600e+03,5.5893e-05
4.1700e+03,5.6576e-05
4.1800e+03,5.7152e-05
4.1900e+03,5.7634e-05
4.2000e+03,5.8019e-05
4.2100e+03,5.8323e-05
4.2200e+03,5.8580e-05
4.2300e+03,5.8812e-05
4.2400e+03,5.9009e-05
4.2500e+03,5.9150e-05
4.2600e+03,5.9236e-05
4.2700e+03,5.9301e-05
4.2800e+03,5.9388e-05
4.2900e+03,5.9509e-05
4.3000e+03,5.9635e-05
4.3100e+03,5.9724e-05
4.3200e+03,5.9758e-05
4.3300e+03,5.9748e-05
4.3400e+03,5.9703e-05
4.3500e+03,5.9630e-05
4.3600e+03,5.9544e-05
4.3700e+03,5.9465e-05
4.3800e+03,5.9415e-05
4.3900e+03,5.9408e-05
4.4000e+03,5.9444e-05
4.4100e+03,5.9509e-05
4.4200e+03,5.9570e-05
4.4300e+03,5.9594e-05
4.4400e+03,5.9579e-05
4.4500e+03,5.9546e-05
4.4600e+03,5.9516e-05
4.4700e+03,5.9496e-05
4.4800e+03,5.9492e-05
4.4900e+03,5.9513e-05
4.5000e+03,5.9558e-05
4.5100e+03,5.9615e-05
4.5200e+03,5.9670e-05
4.5300e+03,5.9721e-05
4.5400e+03,5.9775e-05
4.5500e+03,5.9824e-05
4.5600e+03,5.9854e-05
4.5700e+03,5.9857e-05
4.5800e+03,5.9835e-05
4.5900e+03,5.9795e-05
4.6000e+03,5.9749e-05
4.6100e+03,5.9722e-05
4.6200e+03,5.9737e-05
4.6300e+03,5.9813e-05
4.6400e+03,5.9941e-05
4.6500e+03,6.0089e-05
4.6600e+03,6.0224e-05
4.6700e+03,6.0321e-05
4.6800e+03,6.0358e-05
4.6900e+03,6.0316e-05
4.7000e+03,6.0203e-05
4.7100e+03,6.0034e-05
4.7200e+03,5.9822e-05
4.7300e+03,5.9590e-05
4.7400e+03,5.9362e-05
4.7500e+03,5.9146e-05
4.7600e+03,5.8930e-05
4.7700e+03,5.8707e-05
4.7800e+03,5.8490e-05
4.7900e+03,5.8299e-05
4.8000e+03,5.8150e-05
4.8100e+03,5.8052e-05
4.8200e+03,5.8004e-05
4.8300e+03,5.7995e-05
4.8400e+03,5.8024e-05
4.8500e+03,5.8111e-05
4.8600e+03,5.8247e-05
4.8700e+03,5.8385e-05
4.8800e+03,5.8478e-05
4.8900e+03,5.8512e-05
4.9000e+03,5.8508e-05
4.9100e+03,5.8505e-05
4.9200e+03,5.8511e-05
4.9300e+03,5.8491e-05
4.9400e+03,5.8444e-05
4.9500e+03,5.8417e-05
4.9600e+03,5.8450e-05
4.9700e+03,5.8533e-05
4.9800e+03,5.8643e-05
4.9900e+03,5.8795e-05
5.0000e+03,5.9023e-05
5.0100e+03,5.9285e-05
5.0200e+03,5.9454e-05
5.0300e+03,5.9404e-05
5.0400e+03,5.9109e-05
5.0500e+03,5.8719e-05
5.0600e+03,5.8504e-05
5.0700e+03,5.8648e-05
5.0800e+03,5.9070e-05
5.0900e+03,5.9486e-05
5.1000e+03,5.9664e-05
5.1100e+03,5.9622e-05
5.1200e+03,5.9510e-05
5.1300e+03,5.9407e-05
5.1400e+03,5.9293e-05
5.1500e+03,5.9104e-05
5.1600e+03,5.8786e-05
5.1700e+03,5.8350e-05
5.1800e+03,5.7866e-05
5.1900e+03,5.7407e-05
5.2000e+03,5.7026e-05
5.2100e+03,5.6755e-05
5.2200e+03,5.6593e-05
5.2300e+03,5.6501e-05
5.2400e+03,5.6426e-05
5.2500e+03,5.6324e-05
5.2600e+03,5.6195e-05
5.2700e+03,5.6074e-05
5.2800e+03,5.5986e-05
5.2900e+03,5.5934e-05
5.3000e+03,5.5898e-05
5.3100e+03,5.5838e-05
5.3200e+03,5.5688e-05
5.3300e+03,5.5379e-05
5.3400e+03,5.4929e-05
5.3500e+03,5.4466e-05
5.3600e+03,5.4131e-05
5.3700e+03,5.3977e-05
5.3800e+03,5.3957e-05
5.3900e+03,5.3988e-05
5.4000e+03,5.4033e-05
5.4100e+03,5.4081e-05
5.4200e+03,5.4101e-05
5.4300e+03,5.4056e-05
5.4400e+03,5.3930e-05
5.4500e+03,5.3735e-05
5.4600e+03,5.3497e-05
5.4700e+03,5.3251e-05
5.4800e+03,5.3035e-05
5.4900e+03,5.2911e-05
5.5000e+03,5.2910e-05
5.5100e+03,5.2977e-05
5.5200e+03,5.3013e-05
5.5300e+03,5.2984e-05
5.5400e+03,5.2919e-05
5.5500e+03,5.2838e-05
5.5600e+03,5.2716e-05
5.5700e+03,5.2527e-05
5.5800e+03,5.2293e-05
5.5900e+03,5.2079e-05
5.6000e+03,5.1934e-05
5.6100e+03,5.1865e-05
5.6200e+03,5.1844e-05
5.6300e+03,5.1848e-05
5.6400e+03,5.1869e-05
5.6500e+03,5.1896e-05
5.6600e+03,5.1913e-05
5.6700e+03,5.1904e-05
5.6800e+03,5.1873e-05
5.6900e+03,5.1847e-05
5.7000e+03,5.1848e-05
5.7100e+03,5.1879e-05
5.7200e+03,5.1918e-05
5.7300e+03,5.1929e-05
5.7400e+03,5.1887e-05
5.7500e+03,5.1788e-05
5.7600e+03,5.1646e-05
5.7700e+03,5.1491e-05
5.7800e+03,5.1357e-05
5.7900e+03,5.1266e-05
5.8000e+03,5.1213e-05
5.8100e+03,5.1182e-05
5.8200e+03,5.1145e-05
5.8300e+03,5.1077e-05
5.8400e+03,5.0969e-05
5.8500e+03,5.0844e-05
5.8600e+03,5.0754e-05
5.8700e+03,5.0741e-05
5.8800e+03,5.0787e-05
5.8900e+03,5.0812e-05
5.9000e+03,5.0743e-05
5.9100e+03,5.0582e-05
5.9200e+03,5.0402e-05
5.9300e+03,5.0271e-05
5.9400e+03,5.0191e-05
5.9500e+03,5.0124e-05
5.9600e+03,5.0049e-05
5.9700e+03,4.9984e-05
5.9800e+03,4.9938e-05
5.9900e+03,4.9902e-05
6.0000e+03,4.9863e-05
6.0100e+03,4.9813e-05
6.0200e+03,4.9753e-05
6.0300e+03,4.9695e-05
6.0400e+03,4.9653e-05
6.0500e+03,4.9647e-05
6.0600e+03,4.9703e-05
6.0700e+03,4.9821e-05
6.0800e+03,4.9930e-05
6.0900e+03,4.9911e-05
6.1000e+03,4.9671e-05
6.1100e+03,4.9209e-05
6.1200e+03,4.8624e-05
6.1300e+03,4.8083e-05
6.1400e+03,4.7710e-05
6.1500e+03,4.7545e-05
6.1600e+03,4.7578e-05
6.1700e+03,4.7755e-05
6.1800e+03,4.8022e-05
6.1900e+03,4.8365e-05
6.2000e+03,4.8721e-05
6.2100e+03,4.8902e-05
6.2200e+03,4.8735e-05
6.2300e+03,4.8251e-05
6.2400e+03,4.7657e-05
6.2500e+03,4.7152e-05
6.2600e+03,4.6815e-05
6.2700e+03,4.6643e-05
6.2800e+03,4.6633e-05
6.2900e+03,4.6782e-05
6.3000e+03,4.7039e-05
6.3100e+03,4.7310e-05
6.3200e+03,4.7514e-05
6.3300e+03,4.7620e-05
6.3400e+03,4.7625e-05
6.3500e+03,4.7558e-05
6.3600e+03,4.7457e-05
6.3700e+03,4.7345e-05
6.3800e+03,4.7230e-05
6.3900e+03,4.7113e-05
6.4000e+03,4.6992e-05
6.4100e+03,4.6863e-05
6.4200e+03,4.6717e-05
6.4300e+03,4.6550e-05
6.4400e+03,4.6393e-05
6.4500e+03,4.6295e-05
6.4600e+03,4.6261e-05
6.4700e+03,4.6246e-05
6.4800e+03,4.6224e-05
6.4900e+03,4.6213e-05
6.5000e+03,4.6231e-05
6.5100e+03,4.6306e-05
6.5200e+03,4.6458e-05
6.5300e+03,4.6660e-05
6.5400e+03,4.6837e-05
6.5500e+03,4.6924e-05
6.5600e+03,4.6904e-05
6.5700e+03,4.6762e-05
6.5800e+03,4.6488e-05
6.5900e+03,4.6130e-05
6.6000e+03,4.5791e-05
6.6100e+03,4.5547e-05
6.6200e+03,4.5422e-05
6.6300e+03,4.5381e-05
6.6400e+03,4.5373e-05
6.6500e+03,4.5374e-05
6.6600e+03,4.5380e-05
6.6700e+03,4.5386e-05
6.6800e+03,4.5383e-05
6.6900e+03,4.5365e-05
6.7000e+03,4.5333e-05
6.7100e+03,4.5297e-05
6.7200e+03,4.5272e-05
6.7300e+03,4.5264e-05
6.7400e+03,4.5269e-05
6.7500e+03,4.5273e-05
6.7600e+03,4.5261e-05
6.7700e+03,4.5225e-05
6.7800e+03,4.5150e-05
6.7900e+03,4.5013e-05
6.8000e+03,4.4801e-05
6.8100e+03,4.4513e-05
6.8200e+03,4.4168e-05
6.8300e+03,4.3788e-05
6.8400e+03,4.3388e-05
6.8500e+03,4.3006e-05
6.8600e+03,4.2710e-05
6.8700e+03,4.2548e-05
6.8800e+03,4.2503e-05
6.8900e+03,4.2511e-05
6.9000e+03,4.2492e-05
6.9100e+03,4.2421e-05
6.9200e+03,4.2321e-05
6.9300e+03,4.2220e-05
6.9400e+03,4.2131e-05
6.9500e+03,4.2064e-05
6.9600e+03,4.2033e-05
6.9700e+03,4.2042e-05
6.9800e+03,4.2061e-05
6.9900e+03,4.2031e-05
7.0000e+03,4.1890e-05
7.0100e+03,4.1620e-05
7.0200e+03,4.1267e-05
7.0300e+03,4.0911e-05
7.0400e+03,4.0610e-05
7.0500e+03,4.0389e-05
7.0600e+03,4.0254e-05
7.0700e+03,4.0211e-05
7.0800e+03,4.0247e-05
7.0900e+03,4.0317e-05
7.1000e+03,4.0392e-05
7.1100e+03,4.0511e-05
7.1200e+03,4.0707e-05
7.1300e+03,4.0942e-05
7.1400e+03,4.1120e-05
7.1500e+03,4.1167e-05
7.1600e+03,4.1102e-05
7.1700e+03,4.1005e-05
7.1800e+03,4.0982e-05
7.1900e+03,4.1154e-05
7.2000e+03,4.1529e-05
7.2100e+03,4.1943e-05
7.2200e+03,4.2207e-05
7.2300e+03,4.2204e-05
7.2400e+03,4.1912e-05
7.2500e+03,4.1443e-05
7.2600e+03,4.0983e-05
7.2700e+03,4.0662e-05
7.2800e+03,4.0515e-05
7.2900e+03,4.0519e-05
7.3000e+03,4.0605e-05
7.3100e+03,4.0691e-05
7.3200e+03,4.0739e-05
7.3300e+03,4.0764e-05
7.3400e+03,4.0787e-05
7.3500e+03,4.0819e-05
7.3600e+03,4.0866e-05
7.3700e+03,4.0929e-05
7.3800e+03,4.0994e-05
7.3900e+03,4.1049e-05
7.4000e+03,4.1087e-05
7.4100e+03,4.1105e-05
7.4200e+03,4.1108e-05
7.4300e+03,4.1086e-05
7.4400e+03,4.0998e-05
7.4500e+03,4.0802e-05
7.4600e+03,4.0541e-05
7.4700e+03,4.0322e-05
7.4800e+03,4.0194e-05
7.4900e+03,4.0108e-05
7.5000e+03,4.0052e-05
7.5100e+03,4.0090e-05
7.5200e+03,4.0236e-05
7.5300e+03,4.0331e-05
7.5400e+03,4.0155e-05
7.5500e+03,3.9674e-05
7.5600e+03,3.9049e-05
7.5700e+03,3.8476e-05
7.5800e+03,3.8120e-05
7.5900e+03,3.8055e-05
7.6000e+03,3.8220e-05
7.6100e+03,3.8486e-05
7.6200e+03,3.8742e-05
7.6300e+03,3.8944e-05
7.6400e+03,3.9122e-05
7.6500e+03,3.9341e-05
7.6600e+03,3.9607e-05
7.6700e+03,3.9854e-05
7.6800e+03,4.0017e-05
7.6900e+03,4.0084e-05
7.7000e+03,4.0089e-05
7.7100e+03,4.0076e-05
7.7200e+03,4.0072e-05
7.7300e+03,4.0076e-05
7.7400e+03,4.0084e-05
7.7500e+03,4.0124e-05
7.7600e+03,4.0241e-05
7.7700e+03,4.0463e-05
7.7800e+03,4.0766e-05
7.7900e+03,4.1078e-05
7.8000e+03,4.1320e-05
7.8100e+03,4.1449e-05
7.8200e+03,4.1481e-05
7.8300e+03,4.1458e-05
7.8400e+03,4.1407e-05
7.8500e+03,4.1334e-05
7.8600e+03,4.1243e-05
7.8700e+03,4.1146e-05
7.8800e+03,4.1066e-05
7.8900e+03,4.1036e-05
7.9000e+03,4.1077e-05
7.9100e+03,4.1160e-05
7.9200e+03,4.1197e-05
7.9300e+03,4.1110e-05
7.9400e+03,4.0911e-05
7.9500e+03,4.0688e-05
7.9600e+03,4.0519e-05
7.9700e+03,4.0412e-05
7.9800e+03,4.0335e-05
7.9900e+03,4.0256e-05
8.0000e+03,4.0138e-05
8.0100e+03,3.9952e-05
8.0200e+03,3.9692e-05
8.0300e+03,3.9397e-05
8.0400e+03,3.9147e-05
8.0500e+03,3.9029e-05
8.0600e+03,3.9055e-05
8.0700e+03,3.9161e-05
8.0800e+03,3.9275e-05
8.0900e+03,3.9377e-05
8.1000e+03,3.9488e-05
8.1100e+03,3.9639e-05
8.1200e+03,3.9811e-05
8.1300e+03,3.9932e-05
8.1400e+03,3.9945e-05
8.1500e+03,3.9869e-05
8.1600e+03,3.9782e-05
8.1700e+03,3.9754e-05
8.1800e+03,3.9825e-05
8.1900e+03,4.0000e-05
8.2000e+03,4.0229e-05
8.2100e+03,4.0448e-05
8.2200e+03,4.0629e-05
8.2300e+03,4.0742e-05
8.2400e+03,4.0746e-05
8.2500e+03,4.0664e-05
8.2600e+03,4.0589e-05
8.2700e+03,4.0583e-05
8.2800e+03,4.0632e-05
8.2900e+03,4.0713e-05
8.3000e+03,4.0830e-05
8.3100e+03,4.0978e-05
8.3200e+03,4.1145e-05
8.3300e+03,4.1308e-05
8.3400e+03,4.1416e-05
8.3500e+03,4.1441e-05
8.3600e+03,4.1407e-05
8.3700e+03,4.1345e-05
8.3800e+03,4.1285e-05
8.3900e+03,4.1257e-05
8.4000e+03,4.1273e-05
8.4100e+03,4.1327e-05
8.4200e+03,4.1398e-05
8.4300e+03,4.1455e-05
8.4400e+03,4.1471e-05
8.4500e+03,4.1441e-05
8.4600e+03,4.1387e-05
8.4700e+03,4.1333e-05
8.4800e+03,4.1290e-05
8.4900e+03,4.1258e-05
8.5000e+03,4.1228e-05
8.5100e+03,4.1193e-05
8.5200e+03,4.1154e-05
8.5300e+03,4.1121e-05
8.5400e+03,4.1117e-05
8.5500e+03,4.1156e-05
8.5600e+03,4.1212e-05
8.5700e+03,4.1230e-05
8.5800e+03,4.1184e-05
8.5900e+03,4.1147e-05
8.6000e+03,4.1250e-05
8.6100e+03,4.1525e-05
8.6200e+03,4.1868e-05
8.6300e+03,4.2158e-05
8.6400e+03,4.2352e-05
8.6500e+03,4.2453e-05
8.6600e+03,4.2480e-05
8.6700e+03,4.2459e-05
8.6800e+03,4.2405e-05
8.6900e+03,4.2322e-05
8.7000e+03,4.2223e-05
8.7100e+03,4.2123e-05
8.7200e+03,4.2025e-05
8.7300e+03,4.1921e-05
8.7400e+03,4.1821e-05
8.7500e+03,4.1743e-05
8.7600e+03,4.1679e-05
8.7700e+03,4.1607e-05
8.7800e+03,4.1516e-05
8.7900e+03,4.1413e-05
8.8000e+03,4.1304e-05
8.8100e+03,4.1205e-05
8.8200e+03,4.1127e-05
8.8300e+03,4.1059e-05
8.8400e+03,4.0980e-05
8.8500e+03,4.0906e-05
8.8600e+03,4.0888e-05
8.8700e+03,4.0955e-05
8.8800e+03,4.1090e-05
8.8900e+03,4.1249e-05
8.9000e+03,4.1401e-05
8.9100e+03,4.1548e-05
8.9200e+03,4.1681e-05
8.9300e+03,4.1748e-05
8.9400e+03,4.1721e-05
8.9500e+03,4.1651e-05
8.9600e+03,4.1613e-05
8.9700e+03,4.1627e-05
8.9800e+03,4.1652e-05
8.9900e+03,4.1649e-05
9.0000e+03,4.1622e-05
9.0100e+03,4.1605e-05
9.0200e+03,4.1616e-05
9.0300e+03,4.1628e-05
9.0400e+03,4.1607e-05
9.0500e+03,4.1558e-05
9.0600e+03,4.1507e-05
9.0700e+03,4.1457e-05
