# Time , Side-Flux
0.0000e+00,0.0000e+00
1.0000e+01,8.0193e-07
2.0000e+01,1.5401e-06
3.0000e+01,2.1681e-06
4.0000e+01,2.6656e-06
5.0000e+01,3.0362e-06
6.0000e+01,3.2993e-06
7.0000e+01,3.4800e-06
8.0000e+01,3.6023e-06
9.0000e+01,3.6855e-06
1.0000e+02,3.7437e-06
1.1000e+02,3.7858e-06
1.2000e+02,3.8177e-06
1.3000e+02,3.8426e-06
1.4000e+02,3.8624e-06
1.5000e+02,3.8785e-06
1.6000e+02,3.8915e-06
1.7000e+02,3.9022e-06
1.8000e+02,3.9109e-06
1.9000e+02,3.9181e-06
2.0000e+02,3.9240e-06
2.1000e+02,3.9290e-06
2.2000e+02,3.9332e-06
2.3000e+02,3.9367e-06
2.4000e+02,3.9396e-06
2.5000e+02,3.9420e-06
2.6000e+02,3.9440e-06
2.7000e+02,3.9457e-06
2.8000e+02,3.9472e-06
2.9000e+02,3.9485e-06
3.0000e+02,3.9497e-06
3.1000e+02,3.9509e-06
3.2000e+02,3.9521e-06
3.3000e+02,3.9534e-06
3.4000e+02,3.9546e-06
3.5000e+02,3.9558e-06
3.6000e+02,3.9569e-06
3.7000e+02,3.9579e-06
3.8000e+02,3.9588e-06
3.9000e+02,3.9595e-06
4.0000e+02,3.9602e-06
4.1000e+02,3.9608e-06
4.2000e+02,3.9612e-06
4.3000e+02,3.9615e-06
4.4000e+02,3.9616e-06
4.5000e+02,3.9616e-06
4.6000e+02,3.9615e-06
4.7000e+02,3.9616e-06
4.8000e+02,3.9616e-06
4.9000e+02,3.9617e-06
5.0000e+02,3.9617e-06
5.1000e+02,3.9617e-06
5.2000e+02,3.9616e-06
5.3000e+02,3.9616e-06
5.4000e+02,3.9615e-06
5.5000e+02,3.9614e-06
5.6000e+02,3.9614e-06
5.7000e+02,3.9613e-06
5.8000e+02,3.9610e-06
5.9000e+02,3.9606e-06
6.0000e+02,3.9599e-06
6.1000e+02,3.9590e-06
6.2000e+02,3.9576e-06
6.3000e+02,3.9558e-06
6.4000e+02,3.9536e-06
6.5000e+02,3.9507e-06
6.6000e+02,3.9472e-06
6.7000e+02,3.9432e-06
6.8000e+02,3.9388e-06
6.9000e+02,3.9343e-06
7.0000e+02,3.9302e-06
7.1000e+02,3.9265e-06
7.2000e+02,3.9235e-06
7.3000e+02,3.9214e-06
7.4000e+02,3.9202e-06
7.5000e+02,3.9202e-06
7.6000e+02,3.9213e-06
7.7000e+02,3.9236e-06
7.8000e+02,3.9264e-06
7.9000e+02,3.9292e-06
8.0000e+02,3.9312e-06
8.1000e+02,3.9318e-06
8.2000e+02,3.9311e-06
8.3000e+02,3.9297e-06
8.4000e+02,3.9284e-06
8.5000e+02,3.9282e-06
8.6000e+02,3.9292e-06
8.7000e+02,3.9313e-06
8.8000e+02,3.9337e-06
8.9000e+02,3.9353e-06
9.0000e+02,3.9351e-06
9.1000e+02,3.9326e-06
9.2000e+02,3.9275e-06
9.3000e+02,3.9202e-06
9.4000e+02,3.9117e-06
9.5000e+02,3.9031e-06
9.6000e+02,3.8958e-06
9.7000e+02,3.8909e-06
9.8000e+02,3.8892e-06
9.9000e+02,3.8906e-06
1.0000e+03,3.8944e-06
1.0100e+03,3.8989e-06
1.0200e+03,3.9020e-06
1.0300e+03,3.9019e-06
1.0400e+03,3.8973e-06
1.0500e+03,3.8882e-06
1.0600e+03,3.8759e-06
1.0700e+03,3.8620e-06
1.0800e+03,3.8487e-06
1.0900e+03,3.8378e-06
1.1000e+03,3.8308e-06
1.1100e+03,3.8283e-06
1.1200e+03,3.8303e-06
1.1300e+03,3.8357e-06
1.1400e+03,3.8431e-06
1.1500e+03,3.8509e-06
1.1600e+03,3.8576e-06
1.1700e+03,3.8624e-06
1.1800e+03,3.8650e-06
1.1900e+03,3.8656e-06
1.2000e+03,3.8647e-06
1.2100e+03,3.8626e-06
1.2200e+03,3.8595e-06
1.2300e+03,3.8558e-06
1.2400e+03,3.8516e-06
1.2500e+03,3.8474e-06
1.2600e+03,3.8439e-06
1.2700e+03,3.8418e-06
1.2800e+03,3.8417e-06
1.2900e+03,3.8434e-06
1.3000e+03,3.8464e-06
1.3100e+03,3.8496e-06
1.3200e+03,3.8522e-06
1.3300e+03,3.8535e-06
1.3400e+03,3.8535e-06
1.3500e+03,3.8523e-06
1.3600e+03,3.8508e-06
1.3700e+03,3.8494e-06
1.3800e+03,3.8489e-06
1.3900e+03,3.8491e-06
1.4000e+03,3.8500e-06
1.4100e+03,3.8511e-06
1.4200e+03,3.8518e-06
1.4300e+03,3.8520e-06
1.4400e+03,3.8515e-06
1.4500e+03,3.8507e-06
1.4600e+03,3.8496e-06
1.4700e+03,3.8486e-06
1.4800e+03,3.8480e-06
1.4900e+03,3.8477e-06
1.5000e+03,3.8477e-06
1.5100e+03,3.8480e-06
1.5200e+03,3.8483e-06
1.5300e+03,3.8485e-06
1.5400e+03,3.8485e-06
1.5500e+03,3.8482e-06
1.5600e+03,3.8477e-06
1.5700e+03,3.8473e-06
1.5800e+03,3.8470e-06
1.5900e+03,3.8469e-06
1.6000e+03,3.8471e-06
1.6100e+03,3.8472e-06
1.6200e+03,3.8468e-06
1.6300e+03,3.8457e-06
1.6400e+03,3.8436e-06
1.6500e+03,3.8409e-06
1.6600e+03,3.8382e-06
1.6700e+03,3.8363e-06
1.6800e+03,3.8355e-06
1.6900e+03,3.8360e-06
1.7000e+03,3.8373e-06
1.7100e+03,3.8387e-06
1.7200e+03,3.8395e-06
1.7300e+03,3.8394e-06
1.7400e+03,3.8387e-06
1.7500e+03,3.8376e-06
1.7600e+03,3.8366e-06
1.7700e+03,3.8358e-06
1.7800e+03,3.8352e-06
1.7900e+03,3.8347e-06
1.8000e+03,3.8339e-06
1.8100e+03,3.8325e-06
1.8200e+03,3.8306e-06
1.8300e+03,3.8283e-06
1.8400e+03,3.8258e-06
1.8500e+03,3.8234e-06
1.8600e+03,3.8214e-06
1.8700e+03,3.8198e-06
1.8800e+03,3.8184e-06
1.8900e+03,3.8173e-06
1.9000e+03,3.8163e-06
1.9100e+03,3.8154e-06
1.9200e+03,3.8146e-06
1.9300e+03,3.8139e-06
1.9400e+03,3.8134e-06
1.9500e+03,3.8134e-06
1.9600e+03,3.8140e-06
1.9700e+03,3.8152e-06
1.9800e+03,3.8167e-06
1.9900e+03,3.8180e-06
2.0000e+03,3.8184e-06
2.0100e+03,3.8173e-06
2.0200e+03,3.8143e-06
2.0300e+03,3.8100e-06
2.0400e+03,3.8052e-06
2.0500e+03,3.8008e-06
2.0600e+03,3.7977e-06
2.0700e+03,3.7960e-06
2.0800e+03,3.7953e-06
2.0900e+03,3.7949e-06
2.1000e+03,3.7939e-06
2.1100e+03,3.7918e-06
2.1200e+03,3.7882e-06
2.1300e+03,3.7832e-06
2.1400e+03,3.7769e-06
2.1500e+03,3.7699e-06
2.1600e+03,3.7628e-06
2.1700e+03,3.7563e-06
2.1800e+03,3.7512e-06
2.1900e+03,3.7480e-06
2.2000e+03,3.7468e-06
2.2100e+03,3.7476e-06
2.2200e+03,3.7500e-06
2.2300e+03,3.7536e-06
2.2400e+03,3.7577e-06
2.2500e+03,3.7620e-06
2.2600e+03,3.7659e-06
2.2700e+03,3.7693e-06
2.2800e+03,3.7719e-06
2.2900e+03,3.7733e-06
2.3000e+03,3.7731e-06
2.3100e+03,3.7711e-06
2.3200e+03,3.7676e-06
2.3300e+03,3.7633e-06
2.3400e+03,3.7590e-06
2.3500e+03,3.7557e-06
2.3600e+03,3.7538e-06
2.3700e+03,3.7535e-06
2.3800e+03,3.7543e-06
2.3900e+03,3.7557e-06
2.4000e+03,3.7574e-06
2.4100e+03,3.7589e-06
2.4200e+03,3.7601e-06
2.4300e+03,3.7607e-06
2.4400e+03,3.7609e-06
2.4500e+03,3.7608e-06
2.4600e+03,3.7604e-06
2.4700e+03,3.7599e-06
2.4800e+03,3.7595e-06
2.4900e+03,3.7591e-06
2.5000e+03,3.7588e-06
2.5100e+03,3.7587e-06
2.5200e+03,3.7587e-06
2.5300e+03,3.7587e-06
2.5400e+03,3.7587e-06
2.5500e+03,3.7586e-06
2.5600e+03,3.7585e-06
2.5700e+03,3.7582e-06
2.5800e+03,3.7579e-06
2.5900e+03,3.7572e-06
2.6000e+03,3.7563e-06
2.6100e+03,3.7551e-06
2.6200e+03,3.7537e-06
2.6300e+03,3.7522e-06
2.6400e+03,3.7507e-06
2.6500e+03,3.7495e-06
2.6600e+03,3.7485e-06
2.6700e+03,3.7477e-06
2.6800e+03,3.7470e-06
2.6900e+03,3.7463e-06
2.7000e+03,3.7456e-06
2.7100e+03,3.7449e-06
2.7200e+03,3.7441e-06
2.7300e+03,3.7434e-06
2.7400e+03,3.7428e-06
2.7500e+03,3.7428e-06
2.7600e+03,3.7436e-06
2.7700e+03,3.7449e-06
2.7800e+03,3.7462e-06
2.7900e+03,3.7468e-06
2.8000e+03,3.7462e-06
2.8100e+03,3.7441e-06
2.8200e+03,3.7410e-06
2.8300e+03,3.7377e-06
2.8400e+03,3.7348e-06
2.8500e+03,3.7328e-06
2.8600e+03,3.7317e-06
2.8700e+03,3.7311e-06
2.8800e+03,3.7302e-06
2.8900e+03,3.7283e-06
2.9000e+03,3.7244e-06
2.9100e+03,3.7181e-06
2.9200e+03,3.7100e-06
2.9300e+03,3.7013e-06
2.9400e+03,3.6944e-06
2.9500e+03,3.6910e-06
2.9600e+03,3.6924e-06
2.9700e+03,3.6983e-06
2.9800e+03,3.7071e-06
2.9900e+03,3.7162e-06
3.0000e+03,3.7235e-06
3.0100e+03,3.7275e-06
3.0200e+03,3.7278e-06
3.0300e+03,3.7256e-06
3.0400e+03,3.7224e-06
3.0500e+03,3.7198e-06
3.0600e+03,3.7188e-06
3.0700e+03,3.7197e-06
3.0800e+03,3.7217e-06
3.0900e+03,3.7233e-06
3.1000e+03,3.7231e-06
3.1100e+03,3.7199e-06
3.1200e+03,3.7139e-06
3.1300e+03,3.7057e-06
3.1400e+03,3.6965e-06
3.1500e+03,3.6874e-06
3.1600e+03,3.6793e-06
3.1700e+03,3.6726e-06
3.1800e+03,3.6677e-06
3.1900e+03,3.6649e-06
3.2000e+03,3.6642e-06
3.2100e+03,3.6659e-06
3.2200e+03,3.6696e-06
3.2300e+03,3.6750e-06
3.2400e+03,3.6815e-06
3.2500e+03,3.6882e-06
3.2600e+03,3.6938e-06
3.2700e+03,3.6975e-06
3.2800e+03,3.6986e-06
3.2900e+03,3.6968e-06
3.3000e+03,3.6924e-06
3.3100e+03,3.6862e-06
3.3200e+03,3.6793e-06
3.3300e+03,3.6729e-06
3.3400e+03,3.6680e-06
3.3500e+03,3.6654e-06
3.3600e+03,3.6653e-06
3.3700e+03,3.6671e-06
3.3800e+03,3.6700e-06
3.3900e+03,3.6728e-06
3.4000e+03,3.6744e-06
3.4100e+03,3.6742e-06
3.4200e+03,3.6722e-06
3.4300e+03,3.6689e-06
3.4400e+03,3.6653e-06
3.4500e+03,3.6628e-06
3.4600e+03,3.6622e-06
3.4700e+03,3.6640e-06
3.4800e+03,3.6679e-06
3.4900e+03,3.6729e-06
3.5000e+03,3.6779e-06
3.5100e+03,3.6822e-06
3.5200e+03,3.6854e-06
3.5300e+03,3.6874e-06
3.5400e+03,3.6884e-06
3.5500e+03,3.6885e-06
3.5600e+03,3.6877e-06
3.5700e+03,3.6864e-06
3.5800e+03,3.6848e-06
3.5900e+03,3.6831e-06
3.6000e+03,3.6815e-06
3.6100e+03,3.6802e-06
3.6200e+03,3.6794e-06
3.6300e+03,3.6790e-06
3.6400e+03,3.6789e-06
3.6500e+03,3.6789e-06
3.6600e+03,3.6786e-06
3.6700e+03,3.6775e-06
3.6800e+03,3.6757e-06
3.6900e+03,3.6729e-06
3.7000e+03,3.6696e-06
3.7100e+03,3.6659e-06
3.7200e+03,3.6620e-06
3.7300e+03,3.6582e-06
3.7400e+03,3.6546e-06
3.7500e+03,3.6516e-06
3.7600e+03,3.6501e-06
3.7700e+03,3.6506e-06
3.7800e+03,3.6536e-06
3.7900e+03,3.6592e-06
3.8000e+03,3.6668e-06
3.8100e+03,3.6755e-06
3.8200e+03,3.6842e-06
3.8300e+03,3.6917e-06
3.8400e+03,3.6968e-06
3.8500e+03,3.6989e-06
3.8600e+03,3.6973e-06
3.8700e+03,3.6920e-06
3.8800e+03,3.6828e-06
3.8900e+03,3.6696e-06
3.9000e+03,3.6526e-06
3.9100e+03,3.6323e-06
3.9200e+03,3.6102e-06
3.9300e+03,3.5887e-06
3.9400e+03,3.5706e-06
3.9500e+03,3.5585e-06
3.9600e+03,3.5543e-06
3.9700e+03,3.5587e-06
3.9800e+03,3.5712e-06
3.9900e+03,3.5902e-06
4.0000e+03,3.6135e-06
4.0100e+03,3.6385e-06
4.0200e+03,3.6632e-06
4.0300e+03,3.6862e-06
4.0400e+03,3.7074e-06
4.0500e+03,3.7271e-06
4.0600e+03,3.7460e-06
4.0700e+03,3.7647e-06
4.0800e+03,3.7835e-06
4.0900e+03,3.8022e-06
4.1000e+03,3.8202e-06
4.1100e+03,3.8367e-06
4.1200e+03,3.8509e-06
4.1300e+03,3.8621e-06
4.1400e+03,3.8701e-06
4.1500e+03,3.8751e-06
4.1600e+03,3.8780e-06
4.1700e+03,3.8798e-06
4.1800e+03,3.8814e-06
4.1900e+03,3.8835e-06
4.2000e+03,3.8866e-06
4.2100e+03,3.8907e-06
4.2200e+03,3.8959e-06
4.2300e+03,3.9019e-06
4.2400e+03,3.9084e-06
4.2500e+03,3.9153e-06
4.2600e+03,3.9222e-06
4.2700e+03,3.9290e-06
4.2800e+03,3.9356e-06
4.2900e+03,3.9416e-06
4.3000e+03,3.9470e-06
4.3100e+03,3.9513e-06
4.3200e+03,3.9547e-06
4.3300e+03,3.9569e-06
4.3400e+03,3.9580e-06
4.3500e+03,3.9582e-06
4.3600e+03,3.9577e-06
4.3700e+03,3.9567e-06
4.3800e+03,3.9553e-06
4.3900e+03,3.9538e-06
4.4000e+03,3.9520e-06
4.4100e+03,3.9498e-06
4.4200e+03,3.9471e-06
4.4300e+03,3.9437e-06
4.4400e+03,3.9398e-06
4.4500e+03,3.9355e-06
4.4600e+03,3.9312e-06
4.4700e+03,3.9273e-06
4.4800e+03,3.9240e-06
4.4900e+03,3.9218e-06
4.5000e+03,3.9207e-06
4.5100e+03,3.9208e-06
4.5200e+03,3.9219e-06
4.5300e+03,3.9238e-06
4.5400e+03,3.9262e-06
4.5500e+03,3.9287e-06
4.5600e+03,3.9309e-06
4.5700e+03,3.9327e-06
4.5800e+03,3.9339e-06
4.5900e+03,3.9347e-06
4.6000e+03,3.9354e-06
4.6100e+03,3.9361e-06
4.6200e+03,3.9371e-06
4.6300e+03,3.9385e-06
4.6400e+03,3.9402e-06
4.6500e+03,3.9420e-06
4.6600e+03,3.9434e-06
4.6700e+03,3.9442e-06
4.6800e+03,3.9442e-06
4.6900e+03,3.9432e-06
4.7000e+03,3.9412e-06
4.7100e+03,3.9384e-06
4.7200e+03,3.9347e-06
4.7300e+03,3.9303e-06
4.7400e+03,3.9251e-06
4.7500e+03,3.9190e-06
4.7600e+03,3.9121e-06
4.7700e+03,3.9042e-06
4.7800e+03,3.8956e-06
4.7900e+03,3.8865e-06
4.8000e+03,3.8775e-06
4.8100e+03,3.8690e-06
4.8200e+03,3.8617e-06
4.8300e+03,3.8560e-06
4.8400e+03,3.8524e-06
4.8500e+03,3.8508e-06
4.8600e+03,3.8512e-06
4.8700e+03,3.8531e-06
4.8800e+03,3.8562e-06
4.8900e+03,3.8601e-06
4.9000e+03,3.8646e-06
4.9100e+03,3.8696e-06
4.9200e+03,3.8753e-06
4.9300e+03,3.8818e-06
4.9400e+03,3.8898e-06
4.9500e+03,3.9000e-06
4.9600e+03,3.9132e-06
4.9700e+03,3.9301e-06
4.9800e+03,3.9508e-06
4.9900e+03,3.9749e-06
5.0000e+03,4.0011e-06
5.0100e+03,4.0273e-06
5.0200e+03,4.0510e-06
5.0300e+03,4.0705e-06
5.0400e+03,4.0853e-06
5.0500e+03,4.0968e-06
5.0600e+03,4.1072e-06
5.0700e+03,4.1181e-06
5.0800e+03,4.1297e-06
5.0900e+03,4.1402e-06
5.1000e+03,4.1471e-06
5.1100e+03,4.1481e-06
5.1200e+03,4.1417e-06
5.1300e+03,4.1276e-06
5.1400e+03,4.1062e-06
5.1500e+03,4.0781e-06
5.1600e+03,4.0447e-06
5.1700e+03,4.0077e-06
5.1800e+03,3.9694e-06
5.1900e+03,3.9320e-06
5.2000e+03,3.8971e-06
5.2100e+03,3.8661e-06
5.2200e+03,3.8391e-06
5.2300e+03,3.8159e-06
5.2400e+03,3.7961e-06
5.2500e+03,3.7790e-06
5.2600e+03,3.7648e-06
5.2700e+03,3.7536e-06
5.2800e+03,3.7454e-06
5.2900e+03,3.7401e-06
5.3000e+03,3.7372e-06
5.3100e+03,3.7364e-06
5.3200e+03,3.7370e-06
5.3300e+03,3.7390e-06
5.3400e+03,3.7425e-06
5.3500e+03,3.7477e-06
5.3600e+03,3.7543e-06
5.3700e+03,3.7614e-06
5.3800e+03,3.7676e-06
5.3900e+03,3.7718e-06
5.4000e+03,3.7732e-06
5.4100e+03,3.7719e-06
5.4200e+03,3.7685e-06
5.4300e+03,3.7637e-06
5.4400e+03,3.7582e-06
5.4500e+03,3.7522e-06
5.4600e+03,3.7459e-06
5.4700e+03,3.7395e-06
5.4800e+03,3.7332e-06
5.4900e+03,3.7272e-06
5.5000e+03,3.7217e-06
5.5100e+03,3.7163e-06
5.5200e+03,3.7110e-06
5.5300e+03,3.7056e-06
5.5400e+03,3.7000e-06
5.5500e+03,3.6945e-06
5.5600e+03,3.6892e-06
5.5700e+03,3.6845e-06
5.5800e+03,3.6805e-06
5.5900e+03,3.6773e-06
5.6000e+03,3.6750e-06
5.6100e+03,3.6733e-06
5.6200e+03,3.6723e-06
5.6300e+03,3.6718e-06
5.6400e+03,3.6717e-06
5.6500e+03,3.6717e-06
5.6600e+03,3.6718e-06
5.6700e+03,3.6719e-06
5.6800e+03,3.6719e-06
5.6900e+03,3.6721e-06
5.7000e+03,3.6723e-06
5.7100e+03,3.6727e-06
5.7200e+03,3.6730e-06
5.7300e+03,3.6730e-06
5.7400e+03,3.6726e-06
5.7500e+03,3.6718e-06
5.7600e+03,3.6705e-06
5.7700e+03,3.6687e-06
5.7800e+03,3.6663e-06
5.7900e+03,3.6633e-06
5.8000e+03,3.6596e-06
5.8100e+03,3.6553e-06
5.8200e+03,3.6502e-06
5.8300e+03,3.6444e-06
5.8400e+03,3.6379e-06
5.8500e+03,3.6309e-06
5.8600e+03,3.6238e-06
5.8700e+03,3.6167e-06
5.8800e+03,3.6092e-06
5.8900e+03,3.6008e-06
5.9000e+03,3.5910e-06
5.9100e+03,3.5795e-06
5.9200e+03,3.5667e-06
5.9300e+03,3.5536e-06
5.9400e+03,3.5408e-06
5.9500e+03,3.5290e-06
5.9600e+03,3.5185e-06
5.9700e+03,3.5092e-06
5.9800e+03,3.5009e-06
5.9900e+03,3.4933e-06
6.0000e+03,3.4858e-06
6.0100e+03,3.4784e-06
6.0200e+03,3.4709e-06
6.0300e+03,3.4635e-06
6.0400e+03,3.4565e-06
6.0500e+03,3.4499e-06
6.0600e+03,3.4439e-06
6.0700e+03,3.4380e-06
6.0800e+03,3.4313e-06
6.0900e+03,3.4227e-06
6.1000e+03,3.4113e-06
6.1100e+03,3.3967e-06
6.1200e+03,3.3795e-06
6.1300e+03,3.3611e-06
6.1400e+03,3.3432e-06
6.1500e+03,3.3271e-06
6.1600e+03,3.3136e-06
6.1700e+03,3.3024e-06
6.1800e+03,3.2928e-06
6.1900e+03,3.2833e-06
6.2000e+03,3.2723e-06
6.2100e+03,3.2588e-06
6.2200e+03,3.2427e-06
6.2300e+03,3.2248e-06
6.2400e+03,3.2070e-06
6.2500e+03,3.1911e-06
6.2600e+03,3.1787e-06
6.2700e+03,3.1703e-06
6.2800e+03,3.1656e-06
6.2900e+03,3.1636e-06
6.3000e+03,3.1627e-06
6.3100e+03,3.1615e-06
6.3200e+03,3.1589e-06
6.3300e+03,3.1544e-06
6.3400e+03,3.1483e-06
6.3500e+03,3.1413e-06
6.3600e+03,3.1344e-06
6.3700e+03,3.1285e-06
6.3800e+03,3.1242e-06
6.3900e+03,3.1218e-06
6.4000e+03,3.1212e-06
6.4100e+03,3.1222e-06
6.4200e+03,3.1247e-06
6.4300e+03,3.1287e-06
6.4400e+03,3.1344e-06
6.4500e+03,3.1420e-06
6.4600e+03,3.1517e-06
6.4700e+03,3.1636e-06
6.4800e+03,3.1774e-06
6.4900e+03,3.1933e-06
6.5000e+03,3.2108e-06
6.5100e+03,3.2295e-06
6.5200e+03,3.2487e-06
6.5300e+03,3.2669e-06
6.5400e+03,3.2829e-06
6.5500e+03,3.2955e-06
6.5600e+03,3.3040e-06
6.5700e+03,3.3086e-06
6.5800e+03,3.3101e-06
6.5900e+03,3.3098e-06
6.6000e+03,3.3090e-06
6.6100e+03,3.3088e-06
6.6200e+03,3.3096e-06
6.6300e+03,3.3113e-06
6.6400e+03,3.3134e-06
6.6500e+03,3.3156e-06
6.6600e+03,3.3173e-06
6.6700e+03,3.3183e-06
6.6800e+03,3.3187e-06
6.6900e+03,3.3185e-06
6.7000e+03,3.3181e-06
6.7100e+03,3.3176e-06
6.7200e+03,3.3175e-06
6.7300e+03,3.3178e-06
6.7400e+03,3.3187e-06
6.7500e+03,3.3202e-06
6.7600e+03,3.3218e-06
6.7700e+03,3.3232e-06
6.7800e+03,3.3235e-06
6.7900e+03,3.3219e-06
6.8000e+03,3.3177e-06
6.8100e+03,3.3104e-06
6.8200e+03,3.3000e-06
6.8300e+03,3.2871e-06
6.8400e+03,3.2726e-06
6.8500e+03,3.2579e-06
6.8600e+03,3.2442e-06
6.8700e+03,3.2322e-06
6.8800e+03,3.2223e-06
6.8900e+03,3.2142e-06
6.9000e+03,3.2072e-06
6.9100e+03,3.2008e-06
6.9200e+03,3.1945e-06
6.9300e+03,3.1884e-06
6.9400e+03,3.1826e-06
6.9500e+03,3.1773e-06
6.9600e+03,3.1726e-06
6.9700e+03,3.1688e-06
6.9800e+03,3.1658e-06
6.9900e+03,3.1634e-06
7.0000e+03,3.1615e-06
7.0100e+03,3.1601e-06
7.0200e+03,3.1592e-06
7.0300e+03,3.1592e-06
7.0400e+03,3.1609e-06
7.0500e+03,3.1648e-06
7.0600e+03,3.1717e-06
7.0700e+03,3.1821e-06
7.0800e+03,3.1964e-06
7.0900e+03,3.2146e-06
7.1000e+03,3.2365e-06
7.1100e+03,3.2618e-06
7.1200e+03,3.2897e-06
7.1300e+03,3.3191e-06
7.1400e+03,3.3488e-06
7.1500e+03,3.3779e-06
7.1600e+03,3.4062e-06
7.1700e+03,3.4339e-06
7.1800e+03,3.4616e-06
7.1900e+03,3.4894e-06
7.2000e+03,3.5166e-06
7.2100e+03,3.5420e-06
7.2200e+03,3.5642e-06
7.2300e+03,3.5825e-06
7.2400e+03,3.5977e-06
7.2500e+03,3.6117e-06
7.2600e+03,3.6268e-06
7.2700e+03,3.6445e-06
7.2800e+03,3.6652e-06
7.2900e+03,3.6877e-06
7.3000e+03,3.7097e-06
7.3100e+03,3.7288e-06
7.3200e+03,3.7428e-06
7.3300e+03,3.7506e-06
7.3400e+03,3.7523e-06
7.3500e+03,3.7493e-06
7.3600e+03,3.7436e-06
7.3700e+03,3.7372e-06
7.3800e+03,3.7318e-06
7.3900e+03,3.7280e-06
7.4000e+03,3.7256e-06
7.4100e+03,3.7243e-06
7.4200e+03,3.7230e-06
7.4300e+03,3.7211e-06
7.4400e+03,3.7175e-06
7.4500e+03,3.7117e-06
7.4600e+03,3.7039e-06
7.4700e+03,3.6946e-06
7.4800e+03,3.6849e-06
7.4900e+03,3.6755e-06
7.5000e+03,3.6670e-06
7.5100e+03,3.6592e-06
7.5200e+03,3.6516e-06
7.5300e+03,3.6439e-06
7.5400e+03,3.6361e-06
7.5500e+03,3.6290e-06
7.5600e+03,3.6240e-06
7.5700e+03,3.6226e-06
7.5800e+03,3.6257e-06
7.5900e+03,3.6331e-06
7.6000e+03,3.6435e-06
7.6100e+03,3.6553e-06
7.6200e+03,3.6668e-06
7.6300e+03,3.6767e-06
7.6400e+03,3.6845e-06
7.6500e+03,3.6898e-06
7.6600e+03,3.6928e-06
7.6700e+03,3.6941e-06
7.6800e+03,3.6940e-06
7.6900e+03,3.6934e-06
7.7000e+03,3.6926e-06
7.7100e+03,3.6918e-06
7.7200e+03,3.6912e-06
7.7300e+03,3.6904e-06
7.7400e+03,3.6891e-06
7.7500e+03,3.6873e-06
7.7600e+03,3.6852e-06
7.7700e+03,3.6831e-06
7.7800e+03,3.6814e-06
7.7900e+03,3.6802e-06
7.8000e+03,3.6794e-06
7.8100e+03,3.6786e-06
7.8200e+03,3.6776e-06
7.8300e+03,3.6760e-06
7.8400e+03,3.6739e-06
7.8500e+03,3.6714e-06
7.8600e+03,3.6688e-06
7.8700e+03,3.6666e-06
7.8800e+03,3.6649e-06
7.8900e+03,3.6640e-06
7.9000e+03,3.6634e-06
7.9100e+03,3.6626e-06
7.9200e+03,3.6610e-06
7.9300e+03,3.6580e-06
7.9400e+03,3.6535e-06
7.9500e+03,3.6475e-06
7.9600e+03,3.6407e-06
7.9700e+03,3.6335e-06
7.9800e+03,3.6261e-06
7.9900e+03,3.6187e-06
8.0000e+03,3.6113e-06
8.0100e+03,3.6042e-06
8.0200e+03,3.5979e-06
8.0300e+03,3.5935e-06
8.0400e+03,3.5917e-06
8.0500e+03,3.5934e-06
8.0600e+03,3.5990e-06
8.0700e+03,3.6083e-06
8.0800e+03,3.6206e-06
8.0900e+03,3.6349e-06
8.1000e+03,3.6503e-06
8.1100e+03,3.6656e-06
8.1200e+03,3.6797e-06
8.1300e+03,3.6917e-06
8.1400e+03,3.7007e-06
8.1500e+03,3.7064e-06
8.1600e+03,3.7082e-06
8.1700e+03,3.7064e-06
8.1800e+03,3.7013e-06
8.1900e+03,3.6937e-06
8.2000e+03,3.6849e-06
8.2100e+03,3.6761e-06
8.2200e+03,3.6682e-06
8.2300e+03,3.6618e-06
8.2400e+03,3.6571e-06
8.2500e+03,3.6543e-06
8.2600e+03,3.6536e-06
8.2700e+03,3.6551e-06
8.2800e+03,3.6590e-06
8.2900e+03,3.6652e-06
8.3000e+03,3.6733e-06
8.3100e+03,3.6827e-06
8.3200e+03,3.6930e-06
8.3300e+03,3.7034e-06
8.3400e+03,3.7135e-06
8.3500e+03,3.7232e-06
8.3600e+03,3.7323e-06
8.3700e+03,3.7406e-06
8.3800e+03,3.7482e-06
8.3900e+03,3.7549e-06
8.4000e+03,3.7606e-06
8.4100e+03,3.7653e-06
8.4200e+03,3.7689e-06
8.4300e+03,3.7713e-06
8.4400e+03,3.7725e-06
8.4500e+03,3.7726e-06
8.4600e+03,3.7718e-06
8.4700e+03,3.7700e-06
8.4800e+03,3.7674e-06
8.4900e+03,3.7639e-06
8.5000e+03,3.7594e-06
8.5100e+03,3.7540e-06
8.5200e+03,3.7478e-06
8.5300e+03,3.7416e-06
8.5400e+03,3.7361e-06
8.5500e+03,3.7322e-06
8.5600e+03,3.7308e-06
8.5700e+03,3.7325e-06
8.5800e+03,3.7380e-06
8.5900e+03,3.7478e-06
8.6000e+03,3.7620e-06
8.6100e+03,3.7799e-06
8.6200e+03,3.8000e-06
8.6300e+03,3.8201e-06
8.6400e+03,3.8383e-06
8.6500e+03,3.8530e-06
8.6600e+03,3.8634e-06
8.6700e+03,3.8696e-06
8.6800e+03,3.8719e-06
8.6900e+03,3.8711e-06
8.7000e+03,3.8681e-06
8.7100e+03,3.8638e-06
8.7200e+03,3.8591e-06
8.7300e+03,3.8544e-06
8.7400e+03,3.8502e-06
8.7500e+03,3.8467e-06
8.7600e+03,3.8437e-06
8.7700e+03,3.8414e-06
8.7800e+03,3.8394e-06
8.7900e+03,3.8377e-06
8.8000e+03,3.8361e-06
8.8100e+03,3.8347e-06
8.8200e+03,3.8336e-06
8.8300e+03,3.8331e-06
8.8400e+03,3.8334e-06
8.8500e+03,3.8351e-06
8.8600e+03,3.8385e-06
8.8700e+03,3.8436e-06
8.8800e+03,3.8503e-06
8.8900e+03,3.8579e-06
8.9000e+03,3.8653e-06
8.9100e+03,3.8714e-06
8.9200e+03,3.8756e-06
8.9300e+03,3.8777e-06
8.9400e+03,3.8780e-06
8.9500e+03,3.8773e-06
8.9600e+03,3.8762e-06
8.9700e+03,3.8750e-06
8.9800e+03,3.8738e-06
8.9900e+03,3.8725e-06
9.0000e+03,3.8711e-06
9.0100e+03,3.8702e-06
9.0200e+03,3.8701e-06
9.0300e+03,3.8709e-06
9.0400e+03,3.8727e-06
9.0500e+03,3.8752e-06
9.0600e+03,3.8785e-06
9.0700e+03,3.8830e-06
