# Time , Side-Flux
0.0000e+00,0.0000e+00
1.0000e+01,4.2528e-07
2.0000e+01,8.2346e-07
3.0000e+01,1.1735e-06
4.0000e+01,1.4641e-06
5.0000e+01,1.6937e-06
6.0000e+01,1.8681e-06
7.0000e+01,1.9968e-06
8.0000e+01,2.0906e-06
9.0000e+01,2.1587e-06
1.0000e+02,2.2088e-06
1.1000e+02,2.2464e-06
1.2000e+02,2.2752e-06
1.3000e+02,2.2978e-06
1.4000e+02,2.3158e-06
1.5000e+02,2.3304e-06
1.6000e+02,2.3423e-06
1.7000e+02,2.3520e-06
1.8000e+02,2.3601e-06
1.9000e+02,2.3667e-06
2.0000e+02,2.3723e-06
2.1000e+02,2.3769e-06
2.2000e+02,2.3808e-06
2.3000e+02,2.3841e-06
2.4000e+02,2.3869e-06
2.5000e+02,2.3893e-06
2.6000e+02,2.3913e-06
2.7000e+02,2.3930e-06
2.8000e+02,2.3945e-06
2.9000e+02,2.3959e-06
3.0000e+02,2.3972e-06
3.1000e+02,2.3984e-06
3.2000e+02,2.3995e-06
3.3000e+02,2.4006e-06
3.4000e+02,2.4017e-06
3.5000e+02,2.4027e-06
3.6000e+02,2.4037e-06
3.7000e+02,2.4045e-06
3.8000e+02,2.4053e-06
3.9000e+02,2.4059e-06
4.0000e+02,2.4065e-06
4.1000e+02,2.4070e-06
4.2000e+02,2.4074e-06
4.3000e+02,2.4077e-06
4.4000e+02,2.4078e-06
4.5000e+02,2.4079e-06
4.6000e+02,2.4080e-06
4.7000e+02,2.4081e-06
4.8000e+02,2.4082e-06
4.9000e+02,2.4082e-06
5.0000e+02,2.4083e-06
5.1000e+02,2.4083e-06
5.2000e+02,2.4082e-06
5.3000e+02,2.4082e-06
5.4000e+02,2.4081e-06
5.5000e+02,2.4081e-06
5.6000e+02,2.4080e-06
5.7000e+02,2.4080e-06
5.8000e+02,2.4079e-06
5.9000e+02,2.4078e-06
6.0000e+02,2.4076e-06
6.1000e+02,2.4074e-06
6.2000e+02,2.4070e-06
6.3000e+02,2.4064e-06
6.4000e+02,2.4056e-06
6.5000e+02,2.4044e-06
6.6000e+02,2.4030e-06
6.7000e+02,2.4012e-06
6.8000e+02,2.3991e-06
6.9000e+02,2.3969e-06
7.0000e+02,2.3947e-06
7.1000e+02,2.3926e-06
7.2000e+02,2.3909e-06
7.3000e+02,2.3896e-06
7.4000e+02,2.3889e-06
7.5000e+02,2.3888e-06
7.6000e+02,2.3893e-06
7.7000e+02,2.3903e-06
7.8000e+02,2.3916e-06
7.9000e+02,2.3930e-06
8.0000e+02,2.3942e-06
8.1000e+02,2.3950e-06
8.2000e+02,2.3954e-06
8.3000e+02,2.3954e-06
8.4000e+02,2.3955e-06
8.5000e+02,2.3958e-06
8.6000e+02,2.3964e-06
8.7000e+02,2.3972e-06
8.8000e+02,2.3979e-06
8.9000e+02,2.3982e-06
9.0000e+02,2.3978e-06
9.1000e+02,2.3963e-06
9.2000e+02,2.3938e-06
9.3000e+02,2.3904e-06
9.4000e+02,2.3863e-06
9.5000e+02,2.3822e-06
9.6000e+02,2.3785e-06
9.7000e+02,2.3757e-06
9.8000e+02,2.3741e-06
9.9000e+02,2.3737e-06
1.0000e+03,2.3742e-06
1.0100e+03,2.3750e-06
1.0200e+03,2.3752e-06
1.0300e+03,2.3743e-06
1.0400e+03,2.3716e-06
1.0500e+03,2.3673e-06
1.0600e+03,2.3617e-06
1.0700e+03,2.3556e-06
1.0800e+03,2.3498e-06
1.0900e+03,2.3451e-06
1.1000e+03,2.3423e-06
1.1100e+03,2.3416e-06
1.1200e+03,2.3430e-06
1.1300e+03,2.3460e-06
1.1400e+03,2.3500e-06
1.1500e+03,2.3543e-06
1.1600e+03,2.3581e-06
1.1700e+03,2.3611e-06
1.1800e+03,2.3630e-06
1.1900e+03,2.3639e-06
1.2000e+03,2.3638e-06
1.2100e+03,2.3630e-06
1.2200e+03,2.3617e-06
1.2300e+03,2.3599e-06
1.2400e+03,2.3580e-06
1.2500e+03,2.3561e-06
1.2600e+03,2.3546e-06
1.2700e+03,2.3537e-06
1.2800e+03,2.3537e-06
1.2900e+03,2.3546e-06
1.3000e+03,2.3559e-06
1.3100e+03,2.3574e-06
1.3200e+03,2.3588e-06
1.3300e+03,2.3596e-06
1.3400e+03,2.3600e-06
1.3500e+03,2.3600e-06
1.3600e+03,2.3599e-06
1.3700e+03,2.3599e-06
1.3800e+03,2.3601e-06
1.3900e+03,2.3606e-06
1.4000e+03,2.3613e-06
1.4100e+03,2.3619e-06
1.4200e+03,2.3623e-06
1.4300e+03,2.3624e-06
1.4400e+03,2.3621e-06
1.4500e+03,2.3616e-06
1.4600e+03,2.3611e-06
1.4700e+03,2.3605e-06
1.4800e+03,2.3601e-06
1.4900e+03,2.3600e-06
1.5000e+03,2.3600e-06
1.5100e+03,2.3602e-06
1.5200e+03,2.3604e-06
1.5300e+03,2.3605e-06
1.5400e+03,2.3605e-06
1.5500e+03,2.3604e-06
1.5600e+03,2.3602e-06
1.5700e+03,2.3600e-06
1.5800e+03,2.3598e-06
1.5900e+03,2.3596e-06
1.6000e+03,2.3595e-06
1.6100e+03,2.3594e-06
1.6200e+03,2.3591e-06
1.6300e+03,2.3585e-06
1.6400e+03,2.3576e-06
1.6500e+03,2.3564e-06
1.6600e+03,2.3551e-06
1.6700e+03,2.3542e-06
1.6800e+03,2.3536e-06
1.6900e+03,2.3536e-06
1.7000e+03,2.3538e-06
1.7100e+03,2.3542e-06
1.7200e+03,2.3544e-06
1.7300e+03,2.3543e-06
1.7400e+03,2.3539e-06
1.7500e+03,2.3534e-06
1.7600e+03,2.3529e-06
1.7700e+03,2.3524e-06
1.7800e+03,2.3520e-06
1.7900e+03,2.3515e-06
1.8000e+03,2.3510e-06
1.8100e+03,2.3504e-06
1.8200e+03,2.3496e-06
1.8300e+03,2.3489e-06
1.8400e+03,2.3481e-06
1.8500e+03,2.3474e-06
1.8600e+03,2.3468e-06
1.8700e+03,2.3463e-06
1.8800e+03,2.3458e-06
1.8900e+03,2.3452e-06
1.9000e+03,2.3447e-06
1.9100e+03,2.3441e-06
1.9200e+03,2.3435e-06
1.9300e+03,2.3431e-06
1.9400e+03,2.3429e-06
1.9500e+03,2.3429e-06
1.9600e+03,2.3433e-06
1.9700e+03,2.3440e-06
1.9800e+03,2.3449e-06
1.9900e+03,2.3457e-06
2.0000e+03,2.3460e-06
2.0100e+03,2.3456e-06
2.0200e+03,2.3443e-06
2.0300e+03,2.3423e-06
2.0400e+03,2.3398e-06
2.0500e+03,2.3373e-06
2.0600e+03,2.3351e-06
2.0700e+03,2.3333e-06
2.0800e+03,2.3320e-06
2.0900e+03,2.3309e-06
2.1000e+03,2.3296e-06
2.1100e+03,2.3279e-06
2.1200e+03,2.3256e-06
2.1300e+03,2.3228e-06
2.1400e+03,2.3194e-06
2.1500e+03,2.3158e-06
2.1600e+03,2.3123e-06
2.1700e+03,2.3092e-06
2.1800e+03,2.3069e-06
2.1900e+03,2.3056e-06
2.2000e+03,2.3055e-06
2.2100e+03,2.3064e-06
2.2200e+03,2.3082e-06
2.2300e+03,2.3106e-06
2.2400e+03,2.3134e-06
2.2500e+03,2.3163e-06
2.2600e+03,2.3191e-06
2.2700e+03,2.3214e-06
2.2800e+03,2.3231e-06
2.2900e+03,2.3240e-06
2.3000e+03,2.3240e-06
2.3100e+03,2.3230e-06
2.3200e+03,2.3213e-06
2.3300e+03,2.3192e-06
2.3400e+03,2.3171e-06
2.3500e+03,2.3155e-06
2.3600e+03,2.3145e-06
2.3700e+03,2.3143e-06
2.3800e+03,2.3147e-06
2.3900e+03,2.3154e-06
2.4000e+03,2.3163e-06
2.4100e+03,2.3171e-06
2.4200e+03,2.3178e-06
2.4300e+03,2.3182e-06
2.4400e+03,2.3183e-06
2.4500e+03,2.3183e-06
2.4600e+03,2.3182e-06
2.4700e+03,2.3180e-06
2.4800e+03,2.3178e-06
2.4900e+03,2.3176e-06
2.5000e+03,2.3175e-06
2.5100e+03,2.3175e-06
2.5200e+03,2.3174e-06
2.5300e+03,2.3175e-06
2.5400e+03,2.3175e-06
2.5500e+03,2.3175e-06
2.5600e+03,2.3175e-06
2.5700e+03,2.3175e-06
2.5800e+03,2.3174e-06
2.5900e+03,2.3172e-06
2.6000e+03,2.3169e-06
2.6100e+03,2.3164e-06
2.6200e+03,2.3158e-06
2.6300e+03,2.3151e-06
2.6400e+03,2.3143e-06
2.6500e+03,2.3136e-06
2.6600e+03,2.3130e-06
2.6700e+03,2.3125e-06
2.6800e+03,2.3120e-06
2.6900e+03,2.3115e-06
2.7000e+03,2.3111e-06
2.7100e+03,2.3108e-06
2.7200e+03,2.3105e-06
2.7300e+03,2.3104e-06
2.7400e+03,2.3104e-06
2.7500e+03,2.3108e-06
2.7600e+03,2.3114e-06
2.7700e+03,2.3122e-06
2.7800e+03,2.3129e-06
2.7900e+03,2.3133e-06
2.8000e+03,2.3130e-06
2.8100e+03,2.3121e-06
2.8200e+03,2.3105e-06
2.8300e+03,2.3087e-06
2.8400e+03,2.3069e-06
2.8500e+03,2.3054e-06
2.8600e+03,2.3042e-06
2.8700e+03,2.3032e-06
2.8800e+03,2.3022e-06
2.8900e+03,2.3007e-06
2.9000e+03,2.2986e-06
2.9100e+03,2.2956e-06
2.9200e+03,2.2921e-06
2.9300e+03,2.2886e-06
2.9400e+03,2.2859e-06
2.9500e+03,2.2847e-06
2.9600e+03,2.2854e-06
2.9700e+03,2.2880e-06
2.9800e+03,2.2918e-06
2.9900e+03,2.2959e-06
3.0000e+03,2.2993e-06
3.0100e+03,2.3016e-06
3.0200e+03,2.3025e-06
3.0300e+03,2.3024e-06
3.0400e+03,2.3019e-06
3.0500e+03,2.3014e-06
3.0600e+03,2.3015e-06
3.0700e+03,2.3020e-06
3.0800e+03,2.3029e-06
3.0900e+03,2.3034e-06
3.1000e+03,2.3032e-06
3.1100e+03,2.3021e-06
3.1200e+03,2.2999e-06
3.1300e+03,2.2970e-06
3.1400e+03,2.2938e-06
3.1500e+03,2.2906e-06
3.1600e+03,2.2876e-06
3.1700e+03,2.2850e-06
3.1800e+03,2.2830e-06
3.1900e+03,2.2815e-06
3.2000e+03,2.2808e-06
3.2100e+03,2.2809e-06
3.2200e+03,2.2820e-06
3.2300e+03,2.2839e-06
3.2400e+03,2.2863e-06
3.2500e+03,2.2891e-06
3.2600e+03,2.2915e-06
3.2700e+03,2.2932e-06
3.2800e+03,2.2939e-06
3.2900e+03,2.2934e-06
3.3000e+03,2.2917e-06
3.3100e+03,2.2893e-06
3.3200e+03,2.2866e-06
3.3300e+03,2.2842e-06
3.3400e+03,2.2826e-06
3.3500e+03,2.2821e-06
3.3600e+03,2.2827e-06
3.3700e+03,2.2842e-06
3.3800e+03,2.2860e-06
3.3900e+03,2.2876e-06
3.4000e+03,2.2884e-06
3.4100e+03,2.2881e-06
3.4200e+03,2.2867e-06
3.4300e+03,2.2846e-06
3.4400e+03,2.2822e-06
3.4500e+03,2.2802e-06
3.4600e+03,2.2791e-06
3.4700e+03,2.2792e-06
3.4800e+03,2.2805e-06
3.4900e+03,2.2825e-06
3.5000e+03,2.2850e-06
3.5100e+03,2.2873e-06
3.5200e+03,2.2893e-06
3.5300e+03,2.2908e-06
3.5400e+03,2.2917e-06
3.5500e+03,2.2920e-06
3.5600e+03,2.2918e-06
3.5700e+03,2.2913e-06
3.5800e+03,2.2904e-06
3.5900e+03,2.2895e-06
3.6000e+03,2.2887e-06
3.6100e+03,2.2879e-06
3.6200e+03,2.2875e-06
3.6300e+03,2.2873e-06
3.6400e+03,2.2873e-06
3.6500e+03,2.2874e-06
3.6600e+03,2.2874e-06
3.6700e+03,2.2870e-06
3.6800e+03,2.2863e-06
3.6900e+03,2.2850e-06
3.7000e+03,2.2834e-06
3.7100e+03,2.2814e-06
3.7200e+03,2.2793e-06
3.7300e+03,2.2772e-06
3.7400e+03,2.2752e-06
3.7500e+03,2.2736e-06
3.7600e+03,2.2728e-06
3.7700e+03,2.2731e-06
3.7800e+03,2.2747e-06
3.7900e+03,2.2776e-06
3.8000e+03,2.2815e-06
3.8100e+03,2.2860e-06
3.8200e+03,2.2906e-06
3.8300e+03,2.2946e-06
3.8400e+03,2.2973e-06
3.8500e+03,2.2985e-06
3.8600e+03,2.2976e-06
3.8700e+03,2.2946e-06
3.8800e+03,2.2895e-06
3.8900e+03,2.2821e-06
3.9000e+03,2.2729e-06
3.9100e+03,2.2623e-06
3.9200e+03,2.2510e-06
3.9300e+03,2.2402e-06
3.9400e+03,2.2311e-06
3.9500e+03,2.2250e-06
3.9600e+03,2.2225e-06
3.9700e+03,2.2240e-06
3.9800e+03,2.2293e-06
3.9900e+03,2.2378e-06
4.0000e+03,2.2485e-06
4.0100e+03,2.2604e-06
4.0200e+03,2.2726e-06
4.0300e+03,2.2846e-06
4.0400e+03,2.2960e-06
4.0500e+03,2.3069e-06
4.0600e+03,2.3173e-06
4.0700e+03,2.3272e-06
4.0800e+03,2.3366e-06
4.0900e+03,2.3453e-06
4.1000e+03,2.3530e-06
4.1100e+03,2.3594e-06
4.1200e+03,2.3642e-06
4.1300e+03,2.3673e-06
4.1400e+03,2.3689e-06
4.1500e+03,2.3691e-06
4.1600e+03,2.3685e-06
4.1700e+03,2.3676e-06
4.1800e+03,2.3668e-06
4.1900e+03,2.3664e-06
4.2000e+03,2.3668e-06
4.2100e+03,2.3678e-06
4.2200e+03,2.3696e-06
4.2300e+03,2.3719e-06
4.2400e+03,2.3747e-06
4.2500e+03,2.3778e-06
4.2600e+03,2.3810e-06
4.2700e+03,2.3843e-06
4.2800e+03,2.3875e-06
4.2900e+03,2.3905e-06
4.3000e+03,2.3932e-06
4.3100e+03,2.3955e-06
4.3200e+03,2.3973e-06
4.3300e+03,2.3986e-06
4.3400e+03,2.3994e-06
4.3500e+03,2.3997e-06
4.3600e+03,2.3996e-06
4.3700e+03,2.3992e-06
4.3800e+03,2.3986e-06
4.3900e+03,2.3977e-06
4.4000e+03,2.3965e-06
4.4100e+03,2.3951e-06
4.4200e+03,2.3934e-06
4.4300e+03,2.3914e-06
4.4400e+03,2.3891e-06
4.4500e+03,2.3867e-06
4.4600e+03,2.3843e-06
4.4700e+03,2.3821e-06
4.4800e+03,2.3802e-06
4.4900e+03,2.3788e-06
4.5000e+03,2.3779e-06
4.5100e+03,2.3777e-06
4.5200e+03,2.3780e-06
4.5300e+03,2.3787e-06
4.5400e+03,2.3798e-06
4.5500e+03,2.3809e-06
4.5600e+03,2.3821e-06
4.5700e+03,2.3831e-06
4.5800e+03,2.3839e-06
4.5900e+03,2.3846e-06
4.6000e+03,2.3853e-06
4.6100e+03,2.3859e-06
4.6200e+03,2.3866e-06
4.6300e+03,2.3874e-06
4.6400e+03,2.3883e-06
4.6500e+03,2.3891e-06
4.6600e+03,2.3897e-06
4.6700e+03,2.3901e-06
4.6800e+03,2.3902e-06
4.6900e+03,2.3899e-06
4.7000e+03,2.3893e-06
4.7100e+03,2.3884e-06
4.7200e+03,2.3872e-06
4.7300e+03,2.3857e-06
4.7400e+03,2.3838e-06
4.7500e+03,2.3814e-06
4.7600e+03,2.3785e-06
4.7700e+03,2.3750e-06
4.7800e+03,2.3709e-06
4.7900e+03,2.3663e-06
4.8000e+03,2.3615e-06
4.8100e+03,2.3567e-06
4.8200e+03,2.3522e-06
4.8300e+03,2.3484e-06
4.8400e+03,2.3454e-06
4.8500e+03,2.3435e-06
4.8600e+03,2.3425e-06
4.8700e+03,2.3426e-06
4.8800e+03,2.3435e-06
4.8900e+03,2.3452e-06
4.9000e+03,2.3476e-06
4.9100e+03,2.3506e-06
4.9200e+03,2.3543e-06
4.9300e+03,2.3589e-06
4.9400e+03,2.3646e-06
4.9500e+03,2.3718e-06
4.9600e+03,2.3807e-06
4.9700e+03,2.3916e-06
4.9800e+03,2.4046e-06
4.9900e+03,2.4194e-06
5.0000e+03,2.4352e-06
5.0100e+03,2.4512e-06
5.0200e+03,2.4664e-06
5.0300e+03,2.4798e-06
5.0400e+03,2.4913e-06
5.0500e+03,2.5010e-06
5.0600e+03,2.5095e-06
5.0700e+03,2.5173e-06
5.0800e+03,2.5243e-06
5.0900e+03,2.5297e-06
5.1000e+03,2.5327e-06
5.1100e+03,2.5322e-06
5.1200e+03,2.5275e-06
5.1300e+03,2.5184e-06
5.1400e+03,2.5050e-06
5.1500e+03,2.4878e-06
5.1600e+03,2.4675e-06
5.1700e+03,2.4452e-06
5.1800e+03,2.4221e-06
5.1900e+03,2.3991e-06
5.2000e+03,2.3774e-06
5.2100e+03,2.3575e-06
5.2200e+03,2.3397e-06
5.2300e+03,2.3242e-06
5.2400e+03,2.3107e-06
5.2500e+03,2.2993e-06
5.2600e+03,2.2899e-06
5.2700e+03,2.2825e-06
5.2800e+03,2.2773e-06
5.2900e+03,2.2740e-06
5.3000e+03,2.2726e-06
5.3100e+03,2.2729e-06
5.3200e+03,2.2746e-06
5.3300e+03,2.2776e-06
5.3400e+03,2.2818e-06
5.3500e+03,2.2870e-06
5.3600e+03,2.2929e-06
5.3700e+03,2.2988e-06
5.3800e+03,2.3040e-06
5.3900e+03,2.3079e-06
5.4000e+03,2.3103e-06
5.4100e+03,2.3111e-06
5.4200e+03,2.3106e-06
5.4300e+03,2.3091e-06
5.4400e+03,2.3071e-06
5.4500e+03,2.3046e-06
5.4600e+03,2.3018e-06
5.4700e+03,2.2987e-06
5.4800e+03,2.2956e-06
5.4900e+03,2.2924e-06
5.5000e+03,2.2893e-06
5.5100e+03,2.2861e-06
5.5200e+03,2.2830e-06
5.5300e+03,2.2798e-06
5.5400e+03,2.2766e-06
5.5500e+03,2.2736e-06
5.5600e+03,2.2708e-06
5.5700e+03,2.2685e-06
5.5800e+03,2.2665e-06
5.5900e+03,2.2651e-06
5.6000e+03,2.2640e-06
5.6100e+03,2.2633e-06
5.6200e+03,2.2629e-06
5.6300e+03,2.2628e-06
5.6400e+03,2.2629e-06
5.6500e+03,2.2631e-06
5.6600e+03,2.2633e-06
5.6700e+03,2.2637e-06
5.6800e+03,2.2640e-06
5.6900e+03,2.2644e-06
5.7000e+03,2.2649e-06
5.7100e+03,2.2654e-06
5.7200e+03,2.2659e-06
5.7300e+03,2.2663e-06
5.7400e+03,2.2666e-06
5.7500e+03,2.2667e-06
5.7600e+03,2.2666e-06
5.7700e+03,2.2662e-06
5.7800e+03,2.2654e-06
5.7900e+03,2.2642e-06
5.8000e+03,2.2626e-06
5.8100e+03,2.2605e-06
5.8200e+03,2.2578e-06
5.8300e+03,2.2546e-06
5.8400e+03,2.2508e-06
5.8500e+03,2.2466e-06
5.8600e+03,2.2420e-06
5.8700e+03,2.2371e-06
5.8800e+03,2.2317e-06
5.8900e+03,2.2258e-06
5.9000e+03,2.2190e-06
5.9100e+03,2.2115e-06
5.9200e+03,2.2035e-06
5.9300e+03,2.1951e-06
5.9400e+03,2.1868e-06
5.9500e+03,2.1789e-06
5.9600e+03,2.1716e-06
5.9700e+03,2.1649e-06
5.9800e+03,2.1587e-06
5.9900e+03,2.1529e-06
6.0000e+03,2.1472e-06
6.0100e+03,2.1417e-06
6.0200e+03,2.1362e-06
6.0300e+03,2.1307e-06
6.0400e+03,2.1255e-06
6.0500e+03,2.1204e-06
6.0600e+03,2.1155e-06
6.0700e+03,2.1105e-06
6.0800e+03,2.1052e-06
6.0900e+03,2.0992e-06
6.1000e+03,2.0921e-06
6.1100e+03,2.0839e-06
6.1200e+03,2.0747e-06
6.1300e+03,2.0650e-06
6.1400e+03,2.0555e-06
6.1500e+03,2.0465e-06
6.1600e+03,2.0383e-06
6.1700e+03,2.0309e-06
6.1800e+03,2.0240e-06
6.1900e+03,2.0172e-06
6.2000e+03,2.0100e-06
6.2100e+03,2.0021e-06
6.2200e+03,1.9935e-06
6.2300e+03,1.9847e-06
6.2400e+03,1.9762e-06
6.2500e+03,1.9687e-06
6.2600e+03,1.9627e-06
6.2700e+03,1.9584e-06
6.2800e+03,1.9558e-06
6.2900e+03,1.9543e-06
6.3000e+03,1.9534e-06
6.3100e+03,1.9524e-06
6.3200e+03,1.9509e-06
6.3300e+03,1.9487e-06
6.3400e+03,1.9460e-06
6.3500e+03,1.9430e-06
6.3600e+03,1.9402e-06
6.3700e+03,1.9381e-06
6.3800e+03,1.9368e-06
6.3900e+03,1.9366e-06
6.4000e+03,1.9375e-06
6.4100e+03,1.9395e-06
6.4200e+03,1.9425e-06
6.4300e+03,1.9465e-06
6.4400e+03,1.9515e-06
6.4500e+03,1.9577e-06
6.4600e+03,1.9651e-06
6.4700e+03,1.9737e-06
6.4800e+03,1.9835e-06
6.4900e+03,1.9942e-06
6.5000e+03,2.0057e-06
6.5100e+03,2.0177e-06
6.5200e+03,2.0296e-06
6.5300e+03,2.0408e-06
6.5400e+03,2.0507e-06
6.5500e+03,2.0589e-06
6.5600e+03,2.0650e-06
6.5700e+03,2.0693e-06
6.5800e+03,2.0721e-06
6.5900e+03,2.0739e-06
6.6000e+03,2.0754e-06
6.6100e+03,2.0769e-06
6.6200e+03,2.0785e-06
6.6300e+03,2.0804e-06
6.6400e+03,2.0822e-06
6.6500e+03,2.0838e-06
6.6600e+03,2.0850e-06
6.6700e+03,2.0856e-06
6.6800e+03,2.0858e-06
6.6900e+03,2.0856e-06
6.7000e+03,2.0851e-06
6.7100e+03,2.0846e-06
6.7200e+03,2.0842e-06
6.7300e+03,2.0840e-06
6.7400e+03,2.0841e-06
6.7500e+03,2.0845e-06
6.7600e+03,2.0851e-06
6.7700e+03,2.0855e-06
6.7800e+03,2.0854e-06
6.7900e+03,2.0843e-06
6.8000e+03,2.0819e-06
6.8100e+03,2.0779e-06
6.8200e+03,2.0724e-06
6.8300e+03,2.0655e-06
6.8400e+03,2.0577e-06
6.8500e+03,2.0495e-06
6.8600e+03,2.0416e-06
6.8700e+03,2.0342e-06
6.8800e+03,2.0276e-06
6.8900e+03,2.0218e-06
6.9000e+03,2.0166e-06
6.9100e+03,2.0118e-06
6.9200e+03,2.0072e-06
6.9300e+03,2.0029e-06
6.9400e+03,1.9989e-06
6.9500e+03,1.9953e-06
6.9600e+03,1.9922e-06
6.9700e+03,1.9898e-06
6.9800e+03,1.9881e-06
6.9900e+03,1.9871e-06
7.0000e+03,1.9868e-06
7.0100e+03,1.9871e-06
7.0200e+03,1.9881e-06
7.0300e+03,1.9899e-06
7.0400e+03,1.9927e-06
7.0500e+03,1.9967e-06
7.0600e+03,2.0022e-06
7.0700e+03,2.0097e-06
7.0800e+03,2.0192e-06
7.0900e+03,2.0310e-06
7.1000e+03,2.0449e-06
7.1100e+03,2.0608e-06
7.1200e+03,2.0783e-06
7.1300e+03,2.0970e-06
7.1400e+03,2.1164e-06
7.1500e+03,2.1359e-06
7.1600e+03,2.1554e-06
7.1700e+03,2.1748e-06
7.1800e+03,2.1941e-06
7.1900e+03,2.2132e-06
7.2000e+03,2.2316e-06
7.2100e+03,2.2491e-06
7.2200e+03,2.2652e-06
7.2300e+03,2.2797e-06
7.2400e+03,2.2931e-06
7.2500e+03,2.3061e-06
7.2600e+03,2.3194e-06
7.2700e+03,2.3336e-06
7.2800e+03,2.3486e-06
7.2900e+03,2.3638e-06
7.3000e+03,2.3782e-06
7.3100e+03,2.3904e-06
7.3200e+03,2.3997e-06
7.3300e+03,2.4054e-06
7.3400e+03,2.4077e-06
7.3500e+03,2.4072e-06
7.3600e+03,2.4049e-06
7.3700e+03,2.4018e-06
7.3800e+03,2.3988e-06
7.3900e+03,2.3962e-06
7.4000e+03,2.3944e-06
7.4100e+03,2.3930e-06
7.4200e+03,2.3917e-06
7.4300e+03,2.3902e-06
7.4400e+03,2.3881e-06
7.4500e+03,2.3851e-06
7.4600e+03,2.3813e-06
7.4700e+03,2.3768e-06
7.4800e+03,2.3721e-06
7.4900e+03,2.3674e-06
7.5000e+03,2.3630e-06
7.5100e+03,2.3591e-06
7.5200e+03,2.3554e-06
7.5300e+03,2.3521e-06
7.5400e+03,2.3492e-06
7.5500e+03,2.3472e-06
7.5600e+03,2.3465e-06
7.5700e+03,2.3475e-06
7.5800e+03,2.3504e-06
7.5900e+03,2.3550e-06
7.6000e+03,2.3606e-06
7.6100e+03,2.3665e-06
7.6200e+03,2.3719e-06
7.6300e+03,2.3765e-06
7.6400e+03,2.3798e-06
7.6500e+03,2.3819e-06
7.6600e+03,2.3829e-06
7.6700e+03,2.3831e-06
7.6800e+03,2.3828e-06
7.6900e+03,2.3823e-06
7.7000e+03,2.3819e-06
7.7100e+03,2.3817e-06
7.7200e+03,2.3816e-06
7.7300e+03,2.3814e-06
7.7400e+03,2.3810e-06
7.7500e+03,2.3803e-06
7.7600e+03,2.3792e-06
7.7700e+03,2.3780e-06
7.7800e+03,2.3768e-06
7.7900e+03,2.3756e-06
7.8000e+03,2.3746e-06
7.8100e+03,2.3737e-06
7.8200e+03,2.3726e-06
7.8300e+03,2.3715e-06
7.8400e+03,2.3701e-06
7.8500e+03,2.3687e-06
7.8600e+03,2.3672e-06
7.8700e+03,2.3659e-06
7.8800e+03,2.3647e-06
7.8900e+03,2.3637e-06
7.9000e+03,2.3629e-06
7.9100e+03,2.3619e-06
7.9200e+03,2.3606e-06
7.9300e+03,2.3589e-06
7.9400e+03,2.3566e-06
7.9500e+03,2.3538e-06
7.9600e+03,2.3506e-06
7.9700e+03,2.3472e-06
7.9800e+03,2.3439e-06
7.9900e+03,2.3406e-06
8.0000e+03,2.3376e-06
8.0100e+03,2.3350e-06
8.0200e+03,2.3332e-06
8.0300e+03,2.3325e-06
8.0400e+03,2.3334e-06
8.0500e+03,2.3360e-06
8.0600e+03,2.3406e-06
8.0700e+03,2.3470e-06
8.0800e+03,2.3549e-06
8.0900e+03,2.3639e-06
8.1000e+03,2.3733e-06
8.1100e+03,2.3826e-06
8.1200e+03,2.3911e-06
8.1300e+03,2.3984e-06
8.1400e+03,2.4039e-06
8.1500e+03,2.4074e-06
8.1600e+03,2.4086e-06
8.1700e+03,2.4077e-06
8.1800e+03,2.4048e-06
8.1900e+03,2.4004e-06
8.2000e+03,2.3952e-06
8.2100e+03,2.3899e-06
8.2200e+03,2.3849e-06
8.2300e+03,2.3806e-06
8.2400e+03,2.3774e-06
8.2500e+03,2.3754e-06
8.2600e+03,2.3746e-06
8.2700e+03,2.3752e-06
8.2800e+03,2.3770e-06
8.2900e+03,2.3800e-06
8.3000e+03,2.3839e-06
8.3100e+03,2.3886e-06
8.3200e+03,2.3936e-06
8.3300e+03,2.3988e-06
8.3400e+03,2.4039e-06
8.3500e+03,2.4088e-06
8.3600e+03,2.4134e-06
8.3700e+03,2.4178e-06
8.3800e+03,2.4217e-06
8.3900e+03,2.4253e-06
8.4000e+03,2.4285e-06
8.4100e+03,2.4313e-06
8.4200e+03,2.4335e-06
8.4300e+03,2.4353e-06
8.4400e+03,2.4365e-06
8.4500e+03,2.4371e-06
8.4600e+03,2.4372e-06
8.4700e+03,2.4367e-06
8.4800e+03,2.4356e-06
8.4900e+03,2.4338e-06
8.5000e+03,2.4314e-06
8.5100e+03,2.4284e-06
8.5200e+03,2.4250e-06
8.5300e+03,2.4216e-06
8.5400e+03,2.4185e-06
8.5500e+03,2.4164e-06
8.5600e+03,2.4156e-06
8.5700e+03,2.4166e-06
8.5800e+03,2.4199e-06
8.5900e+03,2.4256e-06
8.6000e+03,2.4336e-06
8.6100e+03,2.4436e-06
8.6200e+03,2.4547e-06
8.6300e+03,2.4659e-06
8.6400e+03,2.4762e-06
8.6500e+03,2.4848e-06
8.6600e+03,2.4912e-06
8.6700e+03,2.4953e-06
8.6800e+03,2.4972e-06
8.6900e+03,2.4973e-06
8.7000e+03,2.4960e-06
8.7100e+03,2.4939e-06
8.7200e+03,2.4914e-06
8.7300e+03,2.4889e-06
8.7400e+03,2.4867e-06
8.7500e+03,2.4847e-06
8.7600e+03,2.4832e-06
8.7700e+03,2.4820e-06
8.7800e+03,2.4812e-06
8.7900e+03,2.4805e-06
8.8000e+03,2.4800e-06
8.8100e+03,2.4797e-06
8.8200e+03,2.4796e-06
8.8300e+03,2.4798e-06
8.8400e+03,2.4806e-06
8.8500e+03,2.4822e-06
8.8600e+03,2.4846e-06
8.8700e+03,2.4878e-06
8.8800e+03,2.4918e-06
8.8900e+03,2.4962e-06
8.9000e+03,2.5004e-06
8.9100e+03,2.5041e-06
8.9200e+03,2.5069e-06
8.9300e+03,2.5087e-06
8.9400e+03,2.5095e-06
8.9500e+03,2.5097e-06
8.9600e+03,2.5095e-06
8.9700e+03,2.5091e-06
8.9800e+03,2.5087e-06
8.9900e+03,2.5082e-06
9.0000e+03,2.5078e-06
9.0100e+03,2.5077e-06
9.0200e+03,2.5082e-06
9.0300e+03,2.5092e-06
9.0400e+03,2.5108e-06
9.0500e+03,2.5131e-06
9.0600e+03,2.5161e-06
9.0700e+03,2.5198e-06
