# Time , Side-Flux
0.0000e+00,0.0000e+00
1.0000e+01,2.5882e-05
2.0000e+01,4.9202e-05
3.0000e+01,6.8454e-05
4.0000e+01,8.3386e-05
5.0000e+01,9.4516e-05
6.0000e+01,1.0262e-04
7.0000e+01,1.0844e-04
8.0000e+01,1.1258e-04
9.0000e+01,1.1551e-04
1.0000e+02,1.1757e-04
1.1000e+02,1.1902e-04
1.2000e+02,1.2003e-04
1.3000e+02,1.2074e-04
1.4000e+02,1.2123e-04
1.5000e+02,1.2158e-04
1.6000e+02,1.2183e-04
1.7000e+02,1.2200e-04
1.8000e+02,1.2213e-04
1.9000e+02,1.2223e-04
2.0000e+02,1.2230e-04
2.1000e+02,1.2236e-04
2.2000e+02,1.2240e-04
2.3000e+02,1.2244e-04
2.4000e+02,1.2247e-04
2.5000e+02,1.2250e-04
2.6000e+02,1.2252e-04
2.7000e+02,1.2253e-04
2.8000e+02,1.2255e-04
2.9000e+02,1.2256e-04
3.0000e+02,1.2257e-04
3.1000e+02,1.2258e-04
3.2000e+02,1.2259e-04
3.3000e+02,1.2260e-04
3.4000e+02,1.2261e-04
3.5000e+02,1.2262e-04
3.6000e+02,1.2264e-04
3.7000e+02,1.2265e-04
3.8000e+02,1.2266e-04
3.9000e+02,1.2267e-04
4.0000e+02,1.2267e-04
4.1000e+02,1.2267e-04
4.2000e+02,1.2267e-04
4.3000e+02,1.2266e-04
4.4000e+02,1.2266e-04
4.5000e+02,1.2266e-04
4.6000e+02,1.2266e-04
4.7000e+02,1.2266e-04
4.8000e+02,1.2265e-04
4.9000e+02,1.2265e-04
5.0000e+02,1.2265e-04
5.1000e+02,1.2264e-04
5.2000e+02,1.2264e-04
5.3000e+02,1.2264e-04
5.4000e+02,1.2263e-04
5.5000e+02,1.2263e-04
5.6000e+02,1.2262e-04
5.7000e+02,1.2261e-04
5.8000e+02,1.2259e-04
5.9000e+02,1.2256e-04
6.0000e+02,1.2251e-04
6.1000e+02,1.2243e-04
6.2000e+02,1.2232e-04
6.3000e+02,1.2219e-04
6.4000e+02,1.2201e-04
6.5000e+02,1.2180e-04
6.6000e+02,1.2153e-04
6.7000e+02,1.2121e-04
6.8000e+02,1.2087e-04
6.9000e+02,1.2051e-04
7.0000e+02,1.2015e-04
7.1000e+02,1.1980e-04
7.2000e+02,1.1942e-04
7.3000e+02,1.1903e-04
7.4000e+02,1.1864e-04
7.5000e+02,1.1826e-04
7.6000e+02,1.1794e-04
7.7000e+02,1.1770e-04
7.8000e+02,1.1755e-04
7.9000e+02,1.1747e-04
8.0000e+02,1.1741e-04
8.1000e+02,1.1733e-04
8.2000e+02,1.1717e-04
8.3000e+02,1.1695e-04
8.4000e+02,1.1667e-04
8.5000e+02,1.1640e-04
8.6000e+02,1.1618e-04
8.7000e+02,1.1605e-04
8.8000e+02,1.1601e-04
8.9000e+02,1.1603e-04
9.0000e+02,1.1607e-04
9.1000e+02,1.1608e-04
9.2000e+02,1.1598e-04
9.3000e+02,1.1574e-04
9.4000e+02,1.1533e-04
9.5000e+02,1.1476e-04
9.6000e+02,1.1407e-04
9.7000e+02,1.1332e-04
9.8000e+02,1.1260e-04
9.9000e+02,1.1201e-04
1.0000e+03,1.1163e-04
1.0100e+03,1.1148e-04
1.0200e+03,1.1153e-04
1.0300e+03,1.1168e-04
1.0400e+03,1.1184e-04
1.0500e+03,1.1189e-04
1.0600e+03,1.1178e-04
1.0700e+03,1.1145e-04
1.0800e+03,1.1090e-04
1.0900e+03,1.1014e-04
1.1000e+03,1.0922e-04
1.1100e+03,1.0824e-04
1.1200e+03,1.0730e-04
1.1300e+03,1.0647e-04
1.1400e+03,1.0581e-04
1.1500e+03,1.0531e-04
1.1600e+03,1.0497e-04
1.1700e+03,1.0476e-04
1.1800e+03,1.0465e-04
1.1900e+03,1.0459e-04
1.2000e+03,1.0459e-04
1.2100e+03,1.0460e-04
1.2200e+03,1.0463e-04
1.2300e+03,1.0464e-04
1.2400e+03,1.0462e-04
1.2500e+03,1.0454e-04
1.2600e+03,1.0441e-04
1.2700e+03,1.0423e-04
1.2800e+03,1.0403e-04
1.2900e+03,1.0385e-04
1.3000e+03,1.0369e-04
1.3100e+03,1.0357e-04
1.3200e+03,1.0347e-04
1.3300e+03,1.0339e-04
1.3400e+03,1.0330e-04
1.3500e+03,1.0319e-04
1.3600e+03,1.0304e-04
1.3700e+03,1.0284e-04
1.3800e+03,1.0263e-04
1.3900e+03,1.0244e-04
1.4000e+03,1.0227e-04
1.4100e+03,1.0214e-04
1.4200e+03,1.0205e-04
1.4300e+03,1.0198e-04
1.4400e+03,1.0193e-04
1.4500e+03,1.0189e-04
1.4600e+03,1.0187e-04
1.4700e+03,1.0184e-04
1.4800e+03,1.0182e-04
1.4900e+03,1.0180e-04
1.5000e+03,1.0177e-04
1.5100e+03,1.0175e-04
1.5200e+03,1.0173e-04
1.5300e+03,1.0172e-04
1.5400e+03,1.0171e-04
1.5500e+03,1.0171e-04
1.5600e+03,1.0171e-04
1.5700e+03,1.0171e-04
1.5800e+03,1.0170e-04
1.5900e+03,1.0170e-04
1.6000e+03,1.0170e-04
1.6100e+03,1.0170e-04
1.6200e+03,1.0170e-04
1.6300e+03,1.0169e-04
1.6400e+03,1.0167e-04
1.6500e+03,1.0162e-04
1.6600e+03,1.0155e-04
1.6700e+03,1.0148e-04
1.6800e+03,1.0141e-04
1.6900e+03,1.0135e-04
1.7000e+03,1.0130e-04
1.7100e+03,1.0125e-04
1.7200e+03,1.0119e-04
1.7300e+03,1.0113e-04
1.7400e+03,1.0105e-04
1.7500e+03,1.0098e-04
1.7600e+03,1.0093e-04
1.7700e+03,1.0091e-04
1.7800e+03,1.0093e-04
1.7900e+03,1.0096e-04
1.8000e+03,1.0100e-04
1.8100e+03,1.0099e-04
1.8200e+03,1.0092e-04
1.8300e+03,1.0077e-04
1.8400e+03,1.0054e-04
1.8500e+03,1.0024e-04
1.8600e+03,9.9921e-05
1.8700e+03,9.9605e-05
1.8800e+03,9.9316e-05
1.8900e+03,9.9058e-05
1.9000e+03,9.8827e-05
1.9100e+03,9.8615e-05
1.9200e+03,9.8413e-05
1.9300e+03,9.8219e-05
1.9400e+03,9.8037e-05
1.9500e+03,9.7875e-05
1.9600e+03,9.7742e-05
1.9700e+03,9.7646e-05
1.9800e+03,9.7595e-05
1.9900e+03,9.7587e-05
2.0000e+03,9.7609e-05
2.0100e+03,9.7642e-05
2.0200e+03,9.7665e-05
2.0300e+03,9.7667e-05
2.0400e+03,9.7648e-05
2.0500e+03,9.7607e-05
2.0600e+03,9.7544e-05
2.0700e+03,9.7460e-05
2.0800e+03,9.7358e-05
2.0900e+03,9.7237e-05
2.1000e+03,9.7096e-05
2.1100e+03,9.6934e-05
2.1200e+03,9.6747e-05
2.1300e+03,9.6519e-05
2.1400e+03,9.6227e-05
2.1500e+03,9.5848e-05
2.1600e+03,9.5374e-05
2.1700e+03,9.4803e-05
2.1800e+03,9.4142e-05
2.1900e+03,9.3416e-05
2.2000e+03,9.2666e-05
2.2100e+03,9.1943e-05
2.2200e+03,9.1282e-05
2.2300e+03,9.0686e-05
2.2400e+03,9.0140e-05
2.2500e+03,8.9625e-05
2.2600e+03,8.9139e-05
2.2700e+03,8.8704e-05
2.2800e+03,8.8351e-05
2.2900e+03,8.8102e-05
2.3000e+03,8.7948e-05
2.3100e+03,8.7865e-05
2.3200e+03,8.7827e-05
2.3300e+03,8.7814e-05
2.3400e+03,8.7804e-05
2.3500e+03,8.7783e-05
2.3600e+03,8.7745e-05
2.3700e+03,8.7690e-05
2.3800e+03,8.7620e-05
2.3900e+03,8.7542e-05
2.4000e+03,8.7465e-05
2.4100e+03,8.7396e-05
2.4200e+03,8.7343e-05
2.4300e+03,8.7308e-05
2.4400e+03,8.7296e-05
2.4500e+03,8.7309e-05
2.4600e+03,8.7340e-05
2.4700e+03,8.7370e-05
2.4800e+03,8.7382e-05
2.4900e+03,8.7368e-05
2.5000e+03,8.7337e-05
2.5100e+03,8.7297e-05
2.5200e+03,8.7256e-05
2.5300e+03,8.7212e-05
2.5400e+03,8.7162e-05
2.5500e+03,8.7102e-05
2.5600e+03,8.7030e-05
2.5700e+03,8.6946e-05
2.5800e+03,8.6854e-05
2.5900e+03,8.6761e-05
2.6000e+03,8.6677e-05
2.6100e+03,8.6604e-05
2.6200e+03,8.6544e-05
2.6300e+03,8.6492e-05
2.6400e+03,8.6443e-05
2.6500e+03,8.6395e-05
2.6600e+03,8.6340e-05
2.6700e+03,8.6276e-05
2.6800e+03,8.6196e-05
2.6900e+03,8.6100e-05
2.7000e+03,8.5986e-05
2.7100e+03,8.5854e-05
2.7200e+03,8.5703e-05
2.7300e+03,8.5533e-05
2.7400e+03,8.5353e-05
2.7500e+03,8.5181e-05
2.7600e+03,8.5036e-05
2.7700e+03,8.4933e-05
2.7800e+03,8.4872e-05
2.7900e+03,8.4841e-05
2.8000e+03,8.4819e-05
2.8100e+03,8.4788e-05
2.8200e+03,8.4736e-05
2.8300e+03,8.4665e-05
2.8400e+03,8.4574e-05
2.8500e+03,8.4465e-05
2.8600e+03,8.4338e-05
2.8700e+03,8.4190e-05
2.8800e+03,8.4020e-05
2.8900e+03,8.3819e-05
2.9000e+03,8.3574e-05
2.9100e+03,8.3269e-05
2.9200e+03,8.2901e-05
2.9300e+03,8.2485e-05
2.9400e+03,8.2053e-05
2.9500e+03,8.1641e-05
2.9600e+03,8.1272e-05
2.9700e+03,8.0950e-05
2.9800e+03,8.0661e-05
2.9900e+03,8.0370e-05
3.0000e+03,8.0034e-05
3.0100e+03,7.9630e-05
3.0200e+03,7.9177e-05
3.0300e+03,7.8727e-05
3.0400e+03,7.8341e-05
3.0500e+03,7.8065e-05
3.0600e+03,7.7929e-05
3.0700e+03,7.7941e-05
3.0800e+03,7.8066e-05
3.0900e+03,7.8222e-05
3.1000e+03,7.8304e-05
3.1100e+03,7.8236e-05
3.1200e+03,7.8003e-05
3.1300e+03,7.7646e-05
3.1400e+03,7.7235e-05
3.1500e+03,7.6833e-05
3.1600e+03,7.6479e-05
3.1700e+03,7.6194e-05
3.1800e+03,7.5989e-05
3.1900e+03,7.5860e-05
3.2000e+03,7.5789e-05
3.2100e+03,7.5750e-05
3.2200e+03,7.5722e-05
3.2300e+03,7.5694e-05
3.2400e+03,7.5667e-05
3.2500e+03,7.5637e-05
3.2600e+03,7.5603e-05
3.2700e+03,7.5559e-05
3.2800e+03,7.5504e-05
3.2900e+03,7.5436e-05
3.3000e+03,7.5355e-05
3.3100e+03,7.5264e-05
3.3200e+03,7.5164e-05
3.3300e+03,7.5062e-05
3.3400e+03,7.4961e-05
3.3500e+03,7.4863e-05
3.3600e+03,7.4776e-05
3.3700e+03,7.4707e-05
3.3800e+03,7.4660e-05
3.3900e+03,7.4633e-05
3.4000e+03,7.4616e-05
3.4100e+03,7.4594e-05
3.4200e+03,7.4553e-05
3.4300e+03,7.4481e-05
3.4400e+03,7.4378e-05
3.4500e+03,7.4250e-05
3.4600e+03,7.4113e-05
3.4700e+03,7.3980e-05
3.4800e+03,7.3855e-05
3.4900e+03,7.3725e-05
3.5000e+03,7.3575e-05
3.5100e+03,7.3400e-05
3.5200e+03,7.3215e-05
3.5300e+03,7.3040e-05
3.5400e+03,7.2892e-05
3.5500e+03,7.2781e-05
3.5600e+03,7.2710e-05
3.5700e+03,7.2673e-05
3.5800e+03,7.2660e-05
3.5900e+03,7.2662e-05
3.6000e+03,7.2671e-05
3.6100e+03,7.2677e-05
3.6200e+03,7.2675e-05
3.6300e+03,7.2658e-05
3.6400e+03,7.2626e-05
3.6500e+03,7.2583e-05
3.6600e+03,7.2536e-05
3.6700e+03,7.2493e-05
3.6800e+03,7.2457e-05
3.6900e+03,7.2427e-05
3.7000e+03,7.2399e-05
3.7100e+03,7.2370e-05
3.7200e+03,7.2333e-05
3.7300e+03,7.2282e-05
3.7400e+03,7.2212e-05
3.7500e+03,7.2125e-05
3.7600e+03,7.2030e-05
3.7700e+03,7.1945e-05
3.7800e+03,7.1889e-05
3.7900e+03,7.1872e-05
3.8000e+03,7.1889e-05
3.8100e+03,7.1929e-05
3.8200e+03,7.1974e-05
3.8300e+03,7.2008e-05
3.8400e+03,7.2020e-05
3.8500e+03,7.2008e-05
3.8600e+03,7.1978e-05
3.8700e+03,7.1947e-05
3.8800e+03,7.1924e-05
3.8900e+03,7.1902e-05
3.9000e+03,7.1850e-05
3.9100e+03,7.1724e-05
3.9200e+03,7.1482e-05
3.9300e+03,7.1101e-05
3.9400e+03,7.0593e-05
3.9500e+03,7.0001e-05
3.9600e+03,6.9389e-05
3.9700e+03,6.8836e-05
3.9800e+03,6.8411e-05
3.9900e+03,6.8157e-05
4.0000e+03,6.8064e-05
4.0100e+03,6.8077e-05
4.0200e+03,6.8117e-05
4.0300e+03,6.8108e-05
4.0400e+03,6.8003e-05
4.0500e+03,6.7785e-05
4.0600e+03,6.7467e-05
4.0700e+03,6.7084e-05
4.0800e+03,6.6684e-05
4.0900e+03,6.6320e-05
4.1000e+03,6.6037e-05
4.1100e+03,6.5851e-05
4.1200e+03,6.5734e-05
4.1300e+03,6.5629e-05
4.1400e+03,6.5485e-05
4.1500e+03,6.5273e-05
4.1600e+03,6.4997e-05
4.1700e+03,6.4677e-05
4.1800e+03,6.4345e-05
4.1900e+03,6.4030e-05
4.2000e+03,6.3755e-05
4.2100e+03,6.3530e-05
4.2200e+03,6.3357e-05
4.2300e+03,6.3232e-05
4.2400e+03,6.3145e-05
4.2500e+03,6.3090e-05
4.2600e+03,6.3060e-05
4.2700e+03,6.3047e-05
4.2800e+03,6.3044e-05
4.2900e+03,6.3042e-05
4.3000e+03,6.3028e-05
4.3100e+03,6.2996e-05
4.3200e+03,6.2944e-05
4.3300e+03,6.2876e-05
4.3400e+03,6.2798e-05
4.3500e+03,6.2719e-05
4.3600e+03,6.2653e-05
4.3700e+03,6.2613e-05
4.3800e+03,6.2605e-05
4.3900e+03,6.2630e-05
4.4000e+03,6.2671e-05
4.4100e+03,6.2696e-05
4.4200e+03,6.2670e-05
4.4300e+03,6.2568e-05
4.4400e+03,6.2382e-05
4.4500e+03,6.2127e-05
4.4600e+03,6.1819e-05
4.4700e+03,6.1482e-05
4.4800e+03,6.1144e-05
4.4900e+03,6.0834e-05
4.5000e+03,6.0578e-05
4.5100e+03,6.0389e-05
4.5200e+03,6.0273e-05
4.5300e+03,6.0224e-05
4.5400e+03,6.0231e-05
4.5500e+03,6.0277e-05
4.5600e+03,6.0343e-05
4.5700e+03,6.0409e-05
4.5800e+03,6.0464e-05
4.5900e+03,6.0502e-05
4.6000e+03,6.0526e-05
4.6100e+03,6.0546e-05
4.6200e+03,6.0573e-05
4.6300e+03,6.0616e-05
4.6400e+03,6.0677e-05
4.6500e+03,6.0746e-05
4.6600e+03,6.0808e-05
4.6700e+03,6.0848e-05
4.6800e+03,6.0852e-05
4.6900e+03,6.0819e-05
4.7000e+03,6.0753e-05
4.7100e+03,6.0665e-05
4.7200e+03,6.0569e-05
4.7300e+03,6.0480e-05
4.7400e+03,6.0411e-05
4.7500e+03,6.0368e-05
4.7600e+03,6.0350e-05
4.7700e+03,6.0354e-05
4.7800e+03,6.0372e-05
4.7900e+03,6.0395e-05
4.8000e+03,6.0418e-05
4.8100e+03,6.0433e-05
4.8200e+03,6.0435e-05
4.8300e+03,6.0420e-05
4.8400e+03,6.0388e-05
4.8500e+03,6.0338e-05
4.8600e+03,6.0271e-05
4.8700e+03,6.0193e-05
4.8800e+03,6.0110e-05
4.8900e+03,6.0032e-05
4.9000e+03,5.9968e-05
4.9100e+03,5.9917e-05
4.9200e+03,5.9874e-05
4.9300e+03,5.9829e-05
4.9400e+03,5.9775e-05
4.9500e+03,5.9719e-05
4.9600e+03,5.9670e-05
4.9700e+03,5.9648e-05
4.9800e+03,5.9676e-05
4.9900e+03,5.9790e-05
5.0000e+03,6.0023e-05
5.0100e+03,6.0391e-05
5.0200e+03,6.0886e-05
5.0300e+03,6.1467e-05
5.0400e+03,6.2073e-05
5.0500e+03,6.2652e-05
5.0600e+03,6.3180e-05
5.0700e+03,6.3664e-05
5.0800e+03,6.4107e-05
5.0900e+03,6.4470e-05
5.1000e+03,6.4692e-05
5.1100e+03,6.4726e-05
5.1200e+03,6.4565e-05
5.1300e+03,6.4223e-05
5.1400e+03,6.3709e-05
5.1500e+03,6.3015e-05
5.1600e+03,6.2133e-05
5.1700e+03,6.1071e-05
5.1800e+03,5.9868e-05
5.1900e+03,5.8591e-05
5.2000e+03,5.7323e-05
5.2100e+03,5.6143e-05
5.2200e+03,5.5106e-05
5.2300e+03,5.4228e-05
5.2400e+03,5.3489e-05
5.2500e+03,5.2864e-05
5.2600e+03,5.2340e-05
5.2700e+03,5.1921e-05
5.2800e+03,5.1607e-05
5.2900e+03,5.1386e-05
5.3000e+03,5.1235e-05
5.3100e+03,5.1121e-05
5.3200e+03,5.1004e-05
5.3300e+03,5.0841e-05
5.3400e+03,5.0608e-05
5.3500e+03,5.0316e-05
5.3600e+03,5.0007e-05
5.3700e+03,4.9731e-05
5.3800e+03,4.9527e-05
5.3900e+03,4.9418e-05
5.4000e+03,4.9411e-05
5.4100e+03,4.9499e-05
5.4200e+03,4.9663e-05
5.4300e+03,4.9889e-05
5.4400e+03,5.0166e-05
5.4500e+03,5.0482e-05
5.4600e+03,5.0816e-05
5.4700e+03,5.1138e-05
5.4800e+03,5.1411e-05
5.4900e+03,5.1619e-05
5.5000e+03,5.1766e-05
5.5100e+03,5.1877e-05
5.5200e+03,5.1975e-05
5.5300e+03,5.2070e-05
5.5400e+03,5.2160e-05
5.5500e+03,5.2229e-05
5.5600e+03,5.2260e-05
5.5700e+03,5.2237e-05
5.5800e+03,5.2159e-05
5.5900e+03,5.2035e-05
5.6000e+03,5.1881e-05
5.6100e+03,5.1709e-05
5.6200e+03,5.1522e-05
5.6300e+03,5.1321e-05
5.6400e+03,5.1105e-05
5.6500e+03,5.0875e-05
5.6600e+03,5.0640e-05
5.6700e+03,5.0411e-05
5.6800e+03,5.0207e-05
5.6900e+03,5.0046e-05
5.7000e+03,4.9935e-05
5.7100e+03,4.9866e-05
5.7200e+03,4.9820e-05
5.7300e+03,4.9779e-05
5.7400e+03,4.9733e-05
5.7500e+03,4.9694e-05
5.7600e+03,4.9687e-05
5.7700e+03,4.9743e-05
5.7800e+03,4.9878e-05
5.7900e+03,5.0088e-05
5.8000e+03,5.0348e-05
5.8100e+03,5.0627e-05
5.8200e+03,5.0907e-05
5.8300e+03,5.1183e-05
5.8400e+03,5.1454e-05
5.8500e+03,5.1708e-05
5.8600e+03,5.1923e-05
5.8700e+03,5.2078e-05
5.8800e+03,5.2165e-05
5.8900e+03,5.2195e-05
5.9000e+03,5.2189e-05
5.9100e+03,5.2167e-05
5.9200e+03,5.2139e-05
5.9300e+03,5.2105e-05
5.9400e+03,5.2058e-05
5.9500e+03,5.1988e-05
5.9600e+03,5.1892e-05
5.9700e+03,5.1776e-05
5.9800e+03,5.1651e-05
5.9900e+03,5.1529e-05
6.0000e+03,5.1420e-05
6.0100e+03,5.1333e-05
6.0200e+03,5.1271e-05
6.0300e+03,5.1236e-05
6.0400e+03,5.1227e-05
6.0500e+03,5.1244e-05
6.0600e+03,5.1292e-05
6.0700e+03,5.1375e-05
6.0800e+03,5.1485e-05
6.0900e+03,5.1607e-05
6.1000e+03,5.1722e-05
6.1100e+03,5.1815e-05
6.1200e+03,5.1885e-05
6.1300e+03,5.1937e-05
6.1400e+03,5.1981e-05
6.1500e+03,5.2018e-05
6.1600e+03,5.2031e-05
6.1700e+03,5.2003e-05
6.1800e+03,5.1935e-05
6.1900e+03,5.1842e-05
6.2000e+03,5.1745e-05
6.2100e+03,5.1650e-05
6.2200e+03,5.1557e-05
6.2300e+03,5.1462e-05
6.2400e+03,5.1366e-05
6.2500e+03,5.1279e-05
6.2600e+03,5.1219e-05
6.2700e+03,5.1213e-05
6.2800e+03,5.1282e-05
6.2900e+03,5.1431e-05
6.3000e+03,5.1638e-05
6.3100e+03,5.1873e-05
6.3200e+03,5.2112e-05
6.3300e+03,5.2338e-05
6.3400e+03,5.2551e-05
6.3500e+03,5.2755e-05
6.3600e+03,5.2960e-05
6.3700e+03,5.3165e-05
6.3800e+03,5.3360e-05
6.3900e+03,5.3529e-05
6.4000e+03,5.3654e-05
6.4100e+03,5.3724e-05
6.4200e+03,5.3736e-05
6.4300e+03,5.3696e-05
6.4400e+03,5.3613e-05
6.4500e+03,5.3502e-05
6.4600e+03,5.3382e-05
6.4700e+03,5.3270e-05
6.4800e+03,5.3183e-05
6.4900e+03,5.3147e-05
6.5000e+03,5.3196e-05
6.5100e+03,5.3365e-05
6.5200e+03,5.3670e-05
6.5300e+03,5.4101e-05
6.5400e+03,5.4629e-05
6.5500e+03,5.5210e-05
6.5600e+03,5.5800e-05
6.5700e+03,5.6352e-05
6.5800e+03,5.6825e-05
6.5900e+03,5.7188e-05
6.6000e+03,5.7437e-05
6.6100e+03,5.7584e-05
6.6200e+03,5.7645e-05
6.6300e+03,5.7633e-05
6.6400e+03,5.7566e-05
6.6500e+03,5.7465e-05
6.6600e+03,5.7351e-05
6.6700e+03,5.7244e-05
6.6800e+03,5.7153e-05
6.6900e+03,5.7082e-05
6.7000e+03,5.7031e-05
6.7100e+03,5.6999e-05
6.7200e+03,5.6981e-05
6.7300e+03,5.6974e-05
6.7400e+03,5.6976e-05
6.7500e+03,5.6987e-05
6.7600e+03,5.7006e-05
6.7700e+03,5.7033e-05
6.7800e+03,5.7061e-05
6.7900e+03,5.7080e-05
6.8000e+03,5.7075e-05
6.8100e+03,5.7027e-05
6.8200e+03,5.6920e-05
6.8300e+03,5.6739e-05
6.8400e+03,5.6484e-05
6.8500e+03,5.6163e-05
6.8600e+03,5.5802e-05
6.8700e+03,5.5430e-05
6.8800e+03,5.5074e-05
6.8900e+03,5.4743e-05
6.9000e+03,5.4428e-05
6.9100e+03,5.4112e-05
6.9200e+03,5.3785e-05
6.9300e+03,5.3449e-05
6.9400e+03,5.3115e-05
6.9500e+03,5.2793e-05
6.9600e+03,5.2484e-05
6.9700e+03,5.2181e-05
6.9800e+03,5.1881e-05
6.9900e+03,5.1585e-05
7.0000e+03,5.1302e-05
7.0100e+03,5.1041e-05
7.0200e+03,5.0810e-05
7.0300e+03,5.0614e-05
7.0400e+03,5.0456e-05
7.0500e+03,5.0333e-05
7.0600e+03,5.0242e-05
7.0700e+03,5.0172e-05
7.0800e+03,5.0118e-05
7.0900e+03,5.0076e-05
7.1000e+03,5.0046e-05
7.1100e+03,5.0039e-05
7.1200e+03,5.0064e-05
7.1300e+03,5.0131e-05
7.1400e+03,5.0235e-05
7.1500e+03,5.0359e-05
7.1600e+03,5.0477e-05
7.1700e+03,5.0574e-05
7.1800e+03,5.0658e-05
7.1900e+03,5.0767e-05
7.2000e+03,5.0953e-05
7.2100e+03,5.1255e-05
7.2200e+03,5.1671e-05
7.2300e+03,5.2164e-05
7.2400e+03,5.2681e-05
7.2500e+03,5.3165e-05
7.2600e+03,5.3574e-05
7.2700e+03,5.3890e-05
7.2800e+03,5.4122e-05
7.2900e+03,5.4302e-05
7.3000e+03,5.4467e-05
7.3100e+03,5.4644e-05
7.3200e+03,5.4838e-05
7.3300e+03,5.5029e-05
7.3400e+03,5.5183e-05
7.3500e+03,5.5264e-05
7.3600e+03,5.5253e-05
7.3700e+03,5.5151e-05
7.3800e+03,5.4979e-05
7.3900e+03,5.4772e-05
7.4000e+03,5.4562e-05
7.4100e+03,5.4375e-05
7.4200e+03,5.4221e-05
7.4300e+03,5.4090e-05
7.4400e+03,5.3961e-05
7.4500e+03,5.3805e-05
7.4600e+03,5.3602e-05
7.4700e+03,5.3341e-05
7.4800e+03,5.3025e-05
7.4900e+03,5.2650e-05
7.5000e+03,5.2209e-05
7.5100e+03,5.1697e-05
7.5200e+03,5.1121e-05
7.5300e+03,5.0497e-05
7.5400e+03,4.9837e-05
7.5500e+03,4.9146e-05
7.5600e+03,4.8439e-05
7.5700e+03,4.7754e-05
7.5800e+03,4.7149e-05
7.5900e+03,4.6677e-05
7.6000e+03,4.6361e-05
7.6100e+03,4.6175e-05
7.6200e+03,4.6066e-05
7.6300e+03,4.5984e-05
7.6400e+03,4.5903e-05
7.6500e+03,4.5817e-05
7.6600e+03,4.5726e-05
7.6700e+03,4.5629e-05
7.6800e+03,4.5525e-05
7.6900e+03,4.5410e-05
7.7000e+03,4.5283e-05
7.7100e+03,4.5145e-05
7.7200e+03,4.5006e-05
7.7300e+03,4.4882e-05
7.7400e+03,4.4790e-05
7.7500e+03,4.4739e-05
7.7600e+03,4.4726e-05
7.7700e+03,4.4737e-05
7.7800e+03,4.4754e-05
7.7900e+03,4.4766e-05
7.8000e+03,4.4770e-05
7.8100e+03,4.4773e-05
7.8200e+03,4.4787e-05
7.8300e+03,4.4817e-05
7.8400e+03,4.4862e-05
7.8500e+03,4.4915e-05
7.8600e+03,4.4966e-05
7.8700e+03,4.5002e-05
7.8800e+03,4.5015e-05
7.8900e+03,4.5001e-05
7.9000e+03,4.4959e-05
7.9100e+03,4.4894e-05
7.9200e+03,4.4812e-05
7.9300e+03,4.4719e-05
7.9400e+03,4.4617e-05
7.9500e+03,4.4507e-05
7.9600e+03,4.4394e-05
7.9700e+03,4.4285e-05
7.9800e+03,4.4184e-05
7.9900e+03,4.4097e-05
8.0000e+03,4.4021e-05
8.0100e+03,4.3948e-05
8.0200e+03,4.3866e-05
8.0300e+03,4.3762e-05
8.0400e+03,4.3628e-05
8.0500e+03,4.3469e-05
8.0600e+03,4.3294e-05
8.0700e+03,4.3116e-05
8.0800e+03,4.2942e-05
8.0900e+03,4.2776e-05
8.1000e+03,4.2620e-05
8.1100e+03,4.2472e-05
8.1200e+03,4.2331e-05
8.1300e+03,4.2198e-05
8.1400e+03,4.2081e-05
8.1500e+03,4.1987e-05
8.1600e+03,4.1911e-05
8.1700e+03,4.1837e-05
8.1800e+03,4.1737e-05
8.1900e+03,4.1587e-05
8.2000e+03,4.1384e-05
8.2100e+03,4.1144e-05
8.2200e+03,4.0905e-05
8.2300e+03,4.0702e-05
8.2400e+03,4.0549e-05
8.2500e+03,4.0441e-05
8.2600e+03,4.0365e-05
8.2700e+03,4.0320e-05
8.2800e+03,4.0316e-05
8.2900e+03,4.0365e-05
8.3000e+03,4.0471e-05
8.3100e+03,4.0627e-05
8.3200e+03,4.0822e-05
8.3300e+03,4.1036e-05
8.3400e+03,4.1243e-05
8.3500e+03,4.1415e-05
8.3600e+03,4.1534e-05
8.3700e+03,4.1597e-05
8.3800e+03,4.1614e-05
8.3900e+03,4.1602e-05
8.4000e+03,4.1578e-05
8.4100e+03,4.1547e-05
8.4200e+03,4.1503e-05
8.4300e+03,4.1438e-05
8.4400e+03,4.1345e-05
8.4500e+03,4.1227e-05
8.4600e+03,4.1094e-05
8.4700e+03,4.0956e-05
8.4800e+03,4.0820e-05
8.4900e+03,4.0686e-05
8.5000e+03,4.0549e-05
8.5100e+03,4.0406e-05
8.5200e+03,4.0256e-05
8.5300e+03,4.0100e-05
8.5400e+03,3.9945e-05
8.5500e+03,3.9803e-05
8.5600e+03,3.9682e-05
8.5700e+03,3.9574e-05
8.5800e+03,3.9458e-05
8.5900e+03,3.9317e-05
8.6000e+03,3.9149e-05
8.6100e+03,3.8977e-05
8.6200e+03,3.8835e-05
8.6300e+03,3.8756e-05
8.6400e+03,3.8761e-05
8.6500e+03,3.8860e-05
8.6600e+03,3.9048e-05
8.6700e+03,3.9311e-05
8.6800e+03,3.9624e-05
8.6900e+03,3.9948e-05
8.7000e+03,4.0237e-05
8.7100e+03,4.0446e-05
8.7200e+03,4.0544e-05
8.7300e+03,4.0526e-05
8.7400e+03,4.0408e-05
8.7500e+03,4.0227e-05
8.7600e+03,4.0022e-05
8.7700e+03,3.9829e-05
8.7800e+03,3.9672e-05
8.7900e+03,3.9562e-05
8.8000e+03,3.9497e-05
8.8100e+03,3.9459e-05
8.8200e+03,3.9431e-05
8.8300e+03,3.9396e-05
8.8400e+03,3.9344e-05
8.8500e+03,3.9277e-05
8.8600e+03,3.9197e-05
8.8700e+03,3.9118e-05
8.8800e+03,3.9053e-05
8.8900e+03,3.9011e-05
8.9000e+03,3.9000e-05
8.9100e+03,3.9022e-05
8.9200e+03,3.9074e-05
8.9300e+03,3.9147e-05
8.9400e+03,3.9222e-05
8.9500e+03,3.9278e-05
8.9600e+03,3.9306e-05
8.9700e+03,3.9313e-05
8.9800e+03,3.9308e-05
8.9900e+03,3.9295e-05
9.0000e+03,3.9276e-05
9.0100e+03,3.9255e-05
9.0200e+03,3.9242e-05
9.0300e+03,3.9249e-05
9.0400e+03,3.9289e-05
9.0500e+03,3.9367e-05
9.0600e+03,3.9486e-05
9.0700e+03,3.9646e-05
