# Time , Side-Flux
0.0000e+00,0.0000e+00
1.0000e+01,1.4778e-04
2.0000e+01,2.6249e-04
3.0000e+01,3.3867e-04
4.0000e+01,3.8657e-04
5.0000e+01,4.1668e-04
6.0000e+01,4.3588e-04
7.0000e+01,4.4828e-04
8.0000e+01,4.5637e-04
9.0000e+01,4.6165e-04
1.0000e+02,4.6511e-04
1.1000e+02,4.6736e-04
1.2000e+02,4.6882e-04
1.3000e+02,4.6977e-04
1.4000e+02,4.7038e-04
1.5000e+02,4.7078e-04
1.6000e+02,4.7104e-04
1.7000e+02,4.7121e-04
1.8000e+02,4.7132e-04
1.9000e+02,4.7140e-04
2.0000e+02,4.7146e-04
2.1000e+02,4.7151e-04
2.2000e+02,4.7155e-04
2.3000e+02,4.7158e-04
2.4000e+02,4.7161e-04
2.5000e+02,4.7164e-04
2.6000e+02,4.7166e-04
2.7000e+02,4.7167e-04
2.8000e+02,4.7168e-04
2.9000e+02,4.7169e-04
3.0000e+02,4.7169e-04
3.1000e+02,4.7168e-04
3.2000e+02,4.7167e-04
3.3000e+02,4.7164e-04
3.4000e+02,4.7156e-04
3.5000e+02,4.7146e-04
3.6000e+02,4.7136e-04
3.7000e+02,4.7128e-04
3.8000e+02,4.7116e-04
3.9000e+02,4.7096e-04
4.0000e+02,4.7068e-04
4.1000e+02,4.7035e-04
4.2000e+02,4.7001e-04
4.3000e+02,4.6972e-04
4.4000e+02,4.6949e-04
4.5000e+02,4.6931e-04
4.6000e+02,4.6918e-04
4.7000e+02,4.6908e-04
4.8000e+02,4.6901e-04
4.9000e+02,4.6898e-04
5.0000e+02,4.6895e-04
5.1000e+02,4.6893e-04
5.2000e+02,4.6890e-04
5.3000e+02,4.6888e-04
5.4000e+02,4.6888e-04
5.5000e+02,4.6889e-04
5.6000e+02,4.6889e-04
5.7000e+02,4.6887e-04
5.8000e+02,4.6880e-04
5.9000e+02,4.6862e-04
6.0000e+02,4.6822e-04
6.1000e+02,4.6754e-04
6.2000e+02,4.6667e-04
6.3000e+02,4.6579e-04
6.4000e+02,4.6488e-04
6.5000e+02,4.6365e-04
6.6000e+02,4.6181e-04
6.7000e+02,4.5938e-04
6.8000e+02,4.5687e-04
6.9000e+02,4.5488e-04
7.0000e+02,4.5354e-04
7.1000e+02,4.5248e-04
7.2000e+02,4.5121e-04
7.3000e+02,4.4940e-04
7.4000e+02,4.4713e-04
7.5000e+02,4.4486e-04
7.6000e+02,4.4302e-04
7.7000e+02,4.4188e-04
7.8000e+02,4.4158e-04
7.9000e+02,4.4196e-04
8.0000e+02,4.4250e-04
8.1000e+02,4.4262e-04
8.2000e+02,4.4197e-04
8.3000e+02,4.4050e-04
8.4000e+02,4.3847e-04
8.5000e+02,4.3651e-04
8.6000e+02,4.3524e-04
8.7000e+02,4.3476e-04
8.8000e+02,4.3478e-04
8.9000e+02,4.3513e-04
9.0000e+02,4.3570e-04
9.1000e+02,4.3618e-04
9.2000e+02,4.3598e-04
9.3000e+02,4.3481e-04
9.4000e+02,4.3270e-04
9.5000e+02,4.2979e-04
9.6000e+02,4.2618e-04
9.7000e+02,4.2192e-04
9.8000e+02,4.1741e-04
9.9000e+02,4.1346e-04
1.0000e+03,4.1067e-04
1.0100e+03,4.0933e-04
1.0200e+03,4.0944e-04
1.0300e+03,4.1024e-04
1.0400e+03,4.1086e-04
1.0500e+03,4.1091e-04
1.0600e+03,4.1015e-04
1.0700e+03,4.0841e-04
1.0800e+03,4.0559e-04
1.0900e+03,4.0147e-04
1.1000e+03,3.9611e-04
1.1100e+03,3.9046e-04
1.1200e+03,3.8552e-04
1.1300e+03,3.8154e-04
1.1400e+03,3.7837e-04
1.1500e+03,3.7601e-04
1.1600e+03,3.7447e-04
1.1700e+03,3.7352e-04
1.1800e+03,3.7273e-04
1.1900e+03,3.7195e-04
1.2000e+03,3.7125e-04
1.2100e+03,3.7058e-04
1.2200e+03,3.6989e-04
1.2300e+03,3.6907e-04
1.2400e+03,3.6807e-04
1.2500e+03,3.6686e-04
1.2600e+03,3.6551e-04
1.2700e+03,3.6420e-04
1.2800e+03,3.6313e-04
1.2900e+03,3.6241e-04
1.3000e+03,3.6196e-04
1.3100e+03,3.6169e-04
1.3200e+03,3.6157e-04
1.3300e+03,3.6158e-04
1.3400e+03,3.6164e-04
1.3500e+03,3.6145e-04
1.3600e+03,3.6069e-04
1.3700e+03,3.5945e-04
1.3800e+03,3.5805e-04
1.3900e+03,3.5677e-04
1.4000e+03,3.5573e-04
1.4100e+03,3.5497e-04
1.4200e+03,3.5438e-04
1.4300e+03,3.5380e-04
1.4400e+03,3.5325e-04
1.4500e+03,3.5286e-04
1.4600e+03,3.5262e-04
1.4700e+03,3.5246e-04
1.4800e+03,3.5231e-04
1.4900e+03,3.5214e-04
1.5000e+03,3.5197e-04
1.5100e+03,3.5179e-04
1.5200e+03,3.5161e-04
1.5300e+03,3.5144e-04
1.5400e+03,3.5130e-04
1.5500e+03,3.5117e-04
1.5600e+03,3.5107e-04
1.5700e+03,3.5097e-04
1.5800e+03,3.5088e-04
1.5900e+03,3.5081e-04
1.6000e+03,3.5076e-04
1.6100e+03,3.5071e-04
1.6200e+03,3.5063e-04
1.6300e+03,3.5046e-04
1.6400e+03,3.5016e-04
1.6500e+03,3.4971e-04
1.6600e+03,3.4917e-04
1.6700e+03,3.4868e-04
1.6800e+03,3.4836e-04
1.6900e+03,3.4829e-04
1.7000e+03,3.4837e-04
1.7100e+03,3.4838e-04
1.7200e+03,3.4822e-04
1.7300e+03,3.4796e-04
1.7400e+03,3.4758e-04
1.7500e+03,3.4714e-04
1.7600e+03,3.4675e-04
1.7700e+03,3.4655e-04
1.7800e+03,3.4656e-04
1.7900e+03,3.4672e-04
1.8000e+03,3.4689e-04
1.8100e+03,3.4682e-04
1.8200e+03,3.4632e-04
1.8300e+03,3.4526e-04
1.8400e+03,3.4360e-04
1.8500e+03,3.4150e-04
1.8600e+03,3.3936e-04
1.8700e+03,3.3753e-04
1.8800e+03,3.3611e-04
1.8900e+03,3.3503e-04
1.9000e+03,3.3417e-04
1.9100e+03,3.3338e-04
1.9200e+03,3.3254e-04
1.9300e+03,3.3158e-04
1.9400e+03,3.3052e-04
1.9500e+03,3.2947e-04
1.9600e+03,3.2848e-04
1.9700e+03,3.2756e-04
1.9800e+03,3.2679e-04
1.9900e+03,3.2629e-04
2.0000e+03,3.2604e-04
2.0100e+03,3.2588e-04
2.0200e+03,3.2568e-04
2.0300e+03,3.2547e-04
2.0400e+03,3.2532e-04
2.0500e+03,3.2517e-04
2.0600e+03,3.2492e-04
2.0700e+03,3.2462e-04
2.0800e+03,3.2436e-04
2.0900e+03,3.2408e-04
2.1000e+03,3.2371e-04
2.1100e+03,3.2335e-04
2.1200e+03,3.2309e-04
2.1300e+03,3.2276e-04
2.1400e+03,3.2209e-04
2.1500e+03,3.2095e-04
2.1600e+03,3.1944e-04
2.1700e+03,3.1758e-04
2.1800e+03,3.1514e-04
2.1900e+03,3.1210e-04
2.2000e+03,3.0891e-04
2.2100e+03,3.0616e-04
2.2200e+03,3.0410e-04
2.2300e+03,3.0251e-04
2.2400e+03,3.0097e-04
2.2500e+03,2.9916e-04
2.2600e+03,2.9686e-04
2.2700e+03,2.9418e-04
2.2800e+03,2.9163e-04
2.2900e+03,2.8971e-04
2.3000e+03,2.8834e-04
2.3100e+03,2.8715e-04
2.3200e+03,2.8598e-04
2.3300e+03,2.8500e-04
2.3400e+03,2.8437e-04
2.3500e+03,2.8399e-04
2.3600e+03,2.8372e-04
2.3700e+03,2.8350e-04
2.3800e+03,2.8323e-04
2.3900e+03,2.8286e-04
2.4000e+03,2.8243e-04
2.4100e+03,2.8203e-04
2.4200e+03,2.8166e-04
2.4300e+03,2.8130e-04
2.4400e+03,2.8098e-04
2.4500e+03,2.8083e-04
2.4600e+03,2.8086e-04
2.4700e+03,2.8092e-04
2.4800e+03,2.8085e-04
2.4900e+03,2.8062e-04
2.5000e+03,2.8037e-04
2.5100e+03,2.8019e-04
2.5200e+03,2.8009e-04
2.5300e+03,2.7999e-04
2.5400e+03,2.7985e-04
2.5500e+03,2.7963e-04
2.5600e+03,2.7930e-04
2.5700e+03,2.7878e-04
2.5800e+03,2.7808e-04
2.5900e+03,2.7729e-04
2.6000e+03,2.7655e-04
2.6100e+03,2.7597e-04
2.6200e+03,2.7554e-04
2.6300e+03,2.7525e-04
2.6400e+03,2.7505e-04
2.6500e+03,2.7493e-04
2.6600e+03,2.7481e-04
2.6700e+03,2.7457e-04
2.6800e+03,2.7417e-04
2.6900e+03,2.7366e-04
2.7000e+03,2.7310e-04
2.7100e+03,2.7244e-04
2.7200e+03,2.7160e-04
2.7300e+03,2.7044e-04
2.7400e+03,2.6897e-04
2.7500e+03,2.6742e-04
2.7600e+03,2.6600e-04
2.7700e+03,2.6479e-04
2.7800e+03,2.6391e-04
2.7900e+03,2.6340e-04
2.8000e+03,2.6314e-04
2.8100e+03,2.6296e-04
2.8200e+03,2.6272e-04
2.8300e+03,2.6237e-04
2.8400e+03,2.6191e-04
2.8500e+03,2.6138e-04
2.8600e+03,2.6081e-04
2.8700e+03,2.6027e-04
2.8800e+03,2.5977e-04
2.8900e+03,2.5926e-04
2.9000e+03,2.5859e-04
2.9100e+03,2.5757e-04
2.9200e+03,2.5611e-04
2.9300e+03,2.5435e-04
2.9400e+03,2.5268e-04
2.9500e+03,2.5134e-04
2.9600e+03,2.5036e-04
2.9700e+03,2.4969e-04
2.9800e+03,2.4933e-04
2.9900e+03,2.4907e-04
3.0000e+03,2.4835e-04
3.0100e+03,2.4666e-04
3.0200e+03,2.4423e-04
3.0300e+03,2.4180e-04
3.0400e+03,2.3978e-04
3.0500e+03,2.3827e-04
3.0600e+03,2.3730e-04
3.0700e+03,2.3724e-04
3.0800e+03,2.3823e-04
3.0900e+03,2.3974e-04
3.1000e+03,2.4076e-04
3.1100e+03,2.4051e-04
3.1200e+03,2.3895e-04
3.1300e+03,2.3653e-04
3.1400e+03,2.3392e-04
3.1500e+03,2.3162e-04
3.1600e+03,2.2963e-04
3.1700e+03,2.2789e-04
3.1800e+03,2.2654e-04
3.1900e+03,2.2579e-04
3.2000e+03,2.2559e-04
3.2100e+03,2.2562e-04
3.2200e+03,2.2558e-04
3.2300e+03,2.2544e-04
3.2400e+03,2.2534e-04
3.2500e+03,2.2533e-04
3.2600e+03,2.2528e-04
3.2700e+03,2.2505e-04
3.2800e+03,2.2470e-04
3.2900e+03,2.2431e-04
3.3000e+03,2.2388e-04
3.3100e+03,2.2336e-04
3.3200e+03,2.2280e-04
3.3300e+03,2.2231e-04
3.3400e+03,2.2184e-04
3.3500e+03,2.2134e-04
3.3600e+03,2.2080e-04
3.3700e+03,2.2026e-04
3.3800e+03,2.1977e-04
3.3900e+03,2.1937e-04
3.4000e+03,2.1903e-04
3.4100e+03,2.1870e-04
3.4200e+03,2.1832e-04
3.4300e+03,2.1788e-04
3.4400e+03,2.1740e-04
3.4500e+03,2.1692e-04
3.4600e+03,2.1652e-04
3.4700e+03,2.1626e-04
3.4800e+03,2.1606e-04
3.4900e+03,2.1564e-04
3.5000e+03,2.1473e-04
3.5100e+03,2.1345e-04
3.5200e+03,2.1216e-04
3.5300e+03,2.1109e-04
3.5400e+03,2.1026e-04
3.5500e+03,2.0968e-04
3.5600e+03,2.0938e-04
3.5700e+03,2.0930e-04
3.5800e+03,2.0929e-04
3.5900e+03,2.0932e-04
3.6000e+03,2.0941e-04
3.6100e+03,2.0952e-04
3.6200e+03,2.0959e-04
3.6300e+03,2.0959e-04
3.6400e+03,2.0946e-04
3.6500e+03,2.0918e-04
3.6600e+03,2.0876e-04
3.6700e+03,2.0827e-04
3.6800e+03,2.0777e-04
3.6900e+03,2.0733e-04
3.7000e+03,2.0697e-04
3.7100e+03,2.0669e-04
3.7200e+03,2.0645e-04
3.7300e+03,2.0621e-04
3.7400e+03,2.0591e-04
3.7500e+03,2.0551e-04
3.7600e+03,2.0502e-04
3.7700e+03,2.0456e-04
3.7800e+03,2.0427e-04
3.7900e+03,2.0416e-04
3.8000e+03,2.0415e-04
3.8100e+03,2.0416e-04
3.8200e+03,2.0413e-04
3.8300e+03,2.0405e-04
3.8400e+03,2.0388e-04
3.8500e+03,2.0358e-04
3.8600e+03,2.0322e-04
3.8700e+03,2.0296e-04
3.8800e+03,2.0296e-04
3.8900e+03,2.0316e-04
3.9000e+03,2.0332e-04
3.9100e+03,2.0319e-04
3.9200e+03,2.0255e-04
3.9300e+03,2.0131e-04
3.9400e+03,1.9955e-04
3.9500e+03,1.9750e-04
3.9600e+03,1.9543e-04
3.9700e+03,1.9368e-04
3.9800e+03,1.9281e-04
3.9900e+03,1.9316e-04
4.0000e+03,1.9446e-04
4.0100e+03,1.9611e-04
4.0200e+03,1.9747e-04
4.0300e+03,1.9811e-04
4.0400e+03,1.9781e-04
4.0500e+03,1.9657e-04
4.0600e+03,1.9457e-04
4.0700e+03,1.9202e-04
4.0800e+03,1.8911e-04
4.0900e+03,1.8616e-04
4.1000e+03,1.8382e-04
4.1100e+03,1.8271e-04
4.1200e+03,1.8273e-04
4.1300e+03,1.8317e-04
4.1400e+03,1.8342e-04
4.1500e+03,1.8322e-04
4.1600e+03,1.8253e-04
4.1700e+03,1.8154e-04
4.1800e+03,1.8034e-04
4.1900e+03,1.7907e-04
4.2000e+03,1.7794e-04
4.2100e+03,1.7704e-04
4.2200e+03,1.7634e-04
4.2300e+03,1.7575e-04
4.2400e+03,1.7523e-04
4.2500e+03,1.7478e-04
4.2600e+03,1.7444e-04
4.2700e+03,1.7424e-04
4.2800e+03,1.7413e-04
4.2900e+03,1.7403e-04
4.3000e+03,1.7383e-04
4.3100e+03,1.7348e-04
4.3200e+03,1.7302e-04
4.3300e+03,1.7251e-04
4.3400e+03,1.7194e-04
4.3500e+03,1.7133e-04
4.3600e+03,1.7082e-04
4.3700e+03,1.7046e-04
4.3800e+03,1.7029e-04
4.3900e+03,1.7046e-04
4.4000e+03,1.7101e-04
4.4100e+03,1.7174e-04
4.4200e+03,1.7223e-04
4.4300e+03,1.7209e-04
4.4400e+03,1.7136e-04
4.4500e+03,1.7036e-04
4.4600e+03,1.6928e-04
4.4700e+03,1.6813e-04
4.4800e+03,1.6695e-04
4.4900e+03,1.6587e-04
4.5000e+03,1.6502e-04
4.5100e+03,1.6447e-04
4.5200e+03,1.6421e-04
4.5300e+03,1.6425e-04
4.5400e+03,1.6453e-04
4.5500e+03,1.6494e-04
4.5600e+03,1.6532e-04
4.5700e+03,1.6562e-04
4.5800e+03,1.6582e-04
4.5900e+03,1.6590e-04
4.6000e+03,1.6586e-04
4.6100e+03,1.6579e-04
4.6200e+03,1.6580e-04
4.6300e+03,1.6598e-04
4.6400e+03,1.6636e-04
4.6500e+03,1.6687e-04
4.6600e+03,1.6737e-04
4.6700e+03,1.6775e-04
4.6800e+03,1.6790e-04
4.6900e+03,1.6777e-04
4.7000e+03,1.6741e-04
4.7100e+03,1.6692e-04
4.7200e+03,1.6639e-04
4.7300e+03,1.6591e-04
4.7400e+03,1.6554e-04
4.7500e+03,1.6527e-04
4.7600e+03,1.6509e-04
4.7700e+03,1.6493e-04
4.7800e+03,1.6478e-04
4.7900e+03,1.6466e-04
4.8000e+03,1.6463e-04
4.8100e+03,1.6469e-04
4.8200e+03,1.6474e-04
4.8300e+03,1.6468e-04
4.8400e+03,1.6455e-04
4.8500e+03,1.6439e-04
4.8600e+03,1.6413e-04
4.8700e+03,1.6375e-04
4.8800e+03,1.6335e-04
4.8900e+03,1.6309e-04
4.9000e+03,1.6309e-04
4.9100e+03,1.6336e-04
4.9200e+03,1.6367e-04
4.9300e+03,1.6374e-04
4.9400e+03,1.6349e-04
4.9500e+03,1.6311e-04
4.9600e+03,1.6273e-04
4.9700e+03,1.6235e-04
4.9800e+03,1.6205e-04
4.9900e+03,1.6201e-04
5.0000e+03,1.6247e-04
5.0100e+03,1.6351e-04
5.0200e+03,1.6498e-04
5.0300e+03,1.6672e-04
5.0400e+03,1.6839e-04
5.0500e+03,1.6953e-04
5.0600e+03,1.7016e-04
5.0700e+03,1.7084e-04
5.0800e+03,1.7203e-04
5.0900e+03,1.7337e-04
5.1000e+03,1.7409e-04
5.1100e+03,1.7378e-04
5.1200e+03,1.7283e-04
5.1300e+03,1.7177e-04
5.1400e+03,1.7067e-04
5.1500e+03,1.6927e-04
5.1600e+03,1.6732e-04
5.1700e+03,1.6457e-04
5.1800e+03,1.6102e-04
5.1900e+03,1.5707e-04
5.2000e+03,1.5312e-04
5.2100e+03,1.4960e-04
5.2200e+03,1.4690e-04
5.2300e+03,1.4503e-04
5.2400e+03,1.4358e-04
5.2500e+03,1.4215e-04
5.2600e+03,1.4069e-04
5.2700e+03,1.3940e-04
5.2800e+03,1.3844e-04
5.2900e+03,1.3778e-04
5.3000e+03,1.3731e-04
5.3100e+03,1.3703e-04
5.3200e+03,1.3692e-04
5.3300e+03,1.3674e-04
5.3400e+03,1.3618e-04
5.3500e+03,1.3521e-04
5.3600e+03,1.3406e-04
5.3700e+03,1.3296e-04
5.3800e+03,1.3196e-04
5.3900e+03,1.3115e-04
5.4000e+03,1.3064e-04
5.4100e+03,1.3047e-04
5.4200e+03,1.3052e-04
5.4300e+03,1.3065e-04
5.4400e+03,1.3085e-04
5.4500e+03,1.3123e-04
5.4600e+03,1.3180e-04
5.4700e+03,1.3243e-04
5.4800e+03,1.3294e-04
5.4900e+03,1.3315e-04
5.5000e+03,1.3307e-04
5.5100e+03,1.3296e-04
5.5200e+03,1.3308e-04
5.5300e+03,1.3344e-04
5.5400e+03,1.3393e-04
5.5500e+03,1.3449e-04
5.5600e+03,1.3500e-04
5.5700e+03,1.3520e-04
5.5800e+03,1.3495e-04
5.5900e+03,1.3440e-04
5.6000e+03,1.3373e-04
5.6100e+03,1.3301e-04
5.6200e+03,1.3225e-04
5.6300e+03,1.3146e-04
5.6400e+03,1.3064e-04
5.6500e+03,1.2977e-04
5.6600e+03,1.2884e-04
5.6700e+03,1.2798e-04
5.6800e+03,1.2731e-04
5.6900e+03,1.2701e-04
5.7000e+03,1.2714e-04
5.7100e+03,1.2751e-04
5.7200e+03,1.2783e-04
5.7300e+03,1.2784e-04
5.7400e+03,1.2747e-04
5.7500e+03,1.2687e-04
5.7600e+03,1.2631e-04
5.7700e+03,1.2606e-04
5.7800e+03,1.2639e-04
5.7900e+03,1.2727e-04
5.8000e+03,1.2838e-04
5.8100e+03,1.2932e-04
5.8200e+03,1.2999e-04
5.8300e+03,1.3063e-04
5.8400e+03,1.3150e-04
5.8500e+03,1.3259e-04
5.8600e+03,1.3369e-04
5.8700e+03,1.3451e-04
5.8800e+03,1.3486e-04
5.8900e+03,1.3481e-04
5.9000e+03,1.3457e-04
5.9100e+03,1.3437e-04
5.9200e+03,1.3426e-04
5.9300e+03,1.3425e-04
5.9400e+03,1.3421e-04
5.9500e+03,1.3399e-04
5.9600e+03,1.3355e-04
5.9700e+03,1.3307e-04
5.9800e+03,1.3267e-04
5.9900e+03,1.3237e-04
6.0000e+03,1.3218e-04
6.0100e+03,1.3214e-04
6.0200e+03,1.3227e-04
6.0300e+03,1.3252e-04
6.0400e+03,1.3277e-04
6.0500e+03,1.3297e-04
6.0600e+03,1.3326e-04
6.0700e+03,1.3378e-04
6.0800e+03,1.3452e-04
6.0900e+03,1.3527e-04
6.1000e+03,1.3582e-04
6.1100e+03,1.3608e-04
6.1200e+03,1.3607e-04
6.1300e+03,1.3588e-04
6.1400e+03,1.3575e-04
6.1500e+03,1.3587e-04
6.1600e+03,1.3595e-04
6.1700e+03,1.3557e-04
6.1800e+03,1.3479e-04
6.1900e+03,1.3401e-04
6.2000e+03,1.3350e-04
6.2100e+03,1.3326e-04
6.2200e+03,1.3310e-04
6.2300e+03,1.3287e-04
6.2400e+03,1.3258e-04
6.2500e+03,1.3217e-04
6.2600e+03,1.3168e-04
6.2700e+03,1.3141e-04
6.2800e+03,1.3165e-04
6.2900e+03,1.3243e-04
6.3000e+03,1.3342e-04
6.3100e+03,1.3425e-04
6.3200e+03,1.3478e-04
6.3300e+03,1.3499e-04
6.3400e+03,1.3490e-04
6.3500e+03,1.3465e-04
6.3600e+03,1.3446e-04
6.3700e+03,1.3446e-04
6.3800e+03,1.3469e-04
6.3900e+03,1.3502e-04
6.4000e+03,1.3534e-04
6.4100e+03,1.3555e-04
6.4200e+03,1.3562e-04
6.4300e+03,1.3555e-04
6.4400e+03,1.3538e-04
6.4500e+03,1.3518e-04
6.4600e+03,1.3499e-04
6.4700e+03,1.3481e-04
6.4800e+03,1.3454e-04
6.4900e+03,1.3430e-04
6.5000e+03,1.3452e-04
6.5100e+03,1.3547e-04
6.5200e+03,1.3717e-04
6.5300e+03,1.3945e-04
6.5400e+03,1.4202e-04
6.5500e+03,1.4463e-04
6.5600e+03,1.4720e-04
6.5700e+03,1.4972e-04
6.5800e+03,1.5190e-04
6.5900e+03,1.5333e-04
6.6000e+03,1.5409e-04
6.6100e+03,1.5459e-04
6.6200e+03,1.5492e-04
6.6300e+03,1.5495e-04
6.6400e+03,1.5471e-04
6.6500e+03,1.5425e-04
6.6600e+03,1.5367e-04
6.6700e+03,1.5310e-04
6.6800e+03,1.5257e-04
6.6900e+03,1.5209e-04
6.7000e+03,1.5168e-04
6.7100e+03,1.5137e-04
6.7200e+03,1.5116e-04
6.7300e+03,1.5101e-04
6.7400e+03,1.5091e-04
6.7500e+03,1.5086e-04
6.7600e+03,1.5087e-04
6.7700e+03,1.5091e-04
6.7800e+03,1.5090e-04
6.7900e+03,1.5075e-04
6.8000e+03,1.5040e-04
6.8100e+03,1.4986e-04
6.8200e+03,1.4908e-04
6.8300e+03,1.4799e-04
6.8400e+03,1.4654e-04
6.8500e+03,1.4479e-04
6.8600e+03,1.4290e-04
6.8700e+03,1.4108e-04
6.8800e+03,1.3958e-04
6.8900e+03,1.3849e-04
6.9000e+03,1.3767e-04
6.9100e+03,1.3689e-04
6.9200e+03,1.3600e-04
6.9300e+03,1.3505e-04
6.9400e+03,1.3417e-04
6.9500e+03,1.3348e-04
6.9600e+03,1.3293e-04
6.9700e+03,1.3237e-04
6.9800e+03,1.3171e-04
6.9900e+03,1.3099e-04
7.0000e+03,1.3024e-04
7.0100e+03,1.2952e-04
7.0200e+03,1.2886e-04
7.0300e+03,1.2826e-04
7.0400e+03,1.2775e-04
7.0500e+03,1.2739e-04
7.0600e+03,1.2715e-04
7.0700e+03,1.2698e-04
7.0800e+03,1.2688e-04
7.0900e+03,1.2683e-04
7.1000e+03,1.2688e-04
7.1100e+03,1.2705e-04
7.1200e+03,1.2734e-04
7.1300e+03,1.2769e-04
7.1400e+03,1.2796e-04
7.1500e+03,1.2795e-04
7.1600e+03,1.2742e-04
7.1700e+03,1.2629e-04
7.1800e+03,1.2470e-04
7.1900e+03,1.2310e-04
7.2000e+03,1.2225e-04
7.2100e+03,1.2266e-04
7.2200e+03,1.2402e-04
7.2300e+03,1.2570e-04
7.2400e+03,1.2751e-04
7.2500e+03,1.2924e-04
7.2600e+03,1.3054e-04
7.2700e+03,1.3126e-04
7.2800e+03,1.3150e-04
7.2900e+03,1.3146e-04
7.3000e+03,1.3135e-04
7.3100e+03,1.3142e-04
7.3200e+03,1.3173e-04
7.3300e+03,1.3216e-04
7.3400e+03,1.3255e-04
7.3500e+03,1.3271e-04
7.3600e+03,1.3249e-04
7.3700e+03,1.3189e-04
7.3800e+03,1.3102e-04
7.3900e+03,1.3007e-04
7.4000e+03,1.2923e-04
7.4100e+03,1.2863e-04
7.4200e+03,1.2828e-04
7.4300e+03,1.2808e-04
7.4400e+03,1.2790e-04
7.4500e+03,1.2764e-04
7.4600e+03,1.2720e-04
7.4700e+03,1.2658e-04
7.4800e+03,1.2582e-04
7.4900e+03,1.2480e-04
7.5000e+03,1.2337e-04
7.5100e+03,1.2150e-04
7.5200e+03,1.1946e-04
7.5300e+03,1.1757e-04
7.5400e+03,1.1578e-04
7.5500e+03,1.1384e-04
7.5600e+03,1.1158e-04
7.5700e+03,1.0916e-04
7.5800e+03,1.0699e-04
7.5900e+03,1.0555e-04
7.6000e+03,1.0506e-04
7.6100e+03,1.0518e-04
7.6200e+03,1.0534e-04
7.6300e+03,1.0525e-04
7.6400e+03,1.0497e-04
7.6500e+03,1.0469e-04
7.6600e+03,1.0446e-04
7.6700e+03,1.0425e-04
7.6800e+03,1.0407e-04
7.6900e+03,1.0394e-04
7.7000e+03,1.0379e-04
7.7100e+03,1.0350e-04
7.7200e+03,1.0304e-04
7.7300e+03,1.0247e-04
7.7400e+03,1.0191e-04
7.7500e+03,1.0153e-04
7.7600e+03,1.0143e-04
7.7700e+03,1.0164e-04
7.7800e+03,1.0208e-04
7.7900e+03,1.0263e-04
7.8000e+03,1.0323e-04
7.8100e+03,1.0385e-04
7.8200e+03,1.0452e-04
7.8300e+03,1.0517e-04
7.8400e+03,1.0578e-04
7.8500e+03,1.0633e-04
7.8600e+03,1.0682e-04
7.8700e+03,1.0721e-04
7.8800e+03,1.0752e-04
7.8900e+03,1.0775e-04
7.9000e+03,1.0788e-04
7.9100e+03,1.0788e-04
7.9200e+03,1.0776e-04
7.9300e+03,1.0755e-04
7.9400e+03,1.0725e-04
7.9500e+03,1.0691e-04
7.9600e+03,1.0656e-04
7.9700e+03,1.0627e-04
7.9800e+03,1.0606e-04
7.9900e+03,1.0597e-04
8.0000e+03,1.0603e-04
8.0100e+03,1.0621e-04
8.0200e+03,1.0638e-04
8.0300e+03,1.0642e-04
8.0400e+03,1.0621e-04
8.0500e+03,1.0572e-04
8.0600e+03,1.0499e-04
8.0700e+03,1.0409e-04
8.0800e+03,1.0313e-04
8.0900e+03,1.0223e-04
8.1000e+03,1.0150e-04
8.1100e+03,1.0084e-04
8.1200e+03,1.0012e-04
8.1300e+03,9.9387e-05
8.1400e+03,9.8823e-05
8.1500e+03,9.8588e-05
8.1600e+03,9.8649e-05
8.1700e+03,9.8821e-05
8.1800e+03,9.8767e-05
8.1900e+03,9.8201e-05
8.2000e+03,9.7038e-05
8.2100e+03,9.5418e-05
8.2200e+03,9.3784e-05
8.2300e+03,9.2602e-05
8.2400e+03,9.1933e-05
8.2500e+03,9.1515e-05
8.2600e+03,9.1094e-05
8.2700e+03,9.0598e-05
8.2800e+03,9.0187e-05
8.2900e+03,9.0016e-05
8.3000e+03,9.0003e-05
8.3100e+03,9.0076e-05
8.3200e+03,9.0308e-05
8.3300e+03,9.0750e-05
8.3400e+03,9.1329e-05
8.3500e+03,9.1891e-05
8.3600e+03,9.2294e-05
8.3700e+03,9.2488e-05
8.3800e+03,9.2518e-05
8.3900e+03,9.2456e-05
8.4000e+03,9.2385e-05
8.4100e+03,9.2336e-05
8.4200e+03,9.2251e-05
8.4300e+03,9.2047e-05
8.4400e+03,9.1660e-05
8.4500e+03,9.1079e-05
8.4600e+03,9.0359e-05
8.4700e+03,8.9625e-05
8.4800e+03,8.8964e-05
8.4900e+03,8.8325e-05
8.5000e+03,8.7653e-05
8.5100e+03,8.6980e-05
8.5200e+03,8.6329e-05
8.5300e+03,8.5624e-05
8.5400e+03,8.4782e-05
8.5500e+03,8.3968e-05
8.5600e+03,8.3447e-05
8.5700e+03,8.3225e-05
8.5800e+03,8.3035e-05
8.5900e+03,8.2603e-05
8.6000e+03,8.1890e-05
8.6100e+03,8.1090e-05
8.6200e+03,8.0451e-05
8.6300e+03,8.0112e-05
8.6400e+03,8.0102e-05
8.6500e+03,8.0407e-05
8.6600e+03,8.0979e-05
8.6700e+03,8.1767e-05
8.6800e+03,8.2749e-05
8.6900e+03,8.3882e-05
8.7000e+03,8.4986e-05
8.7100e+03,8.5749e-05
8.7200e+03,8.5946e-05
8.7300e+03,8.5588e-05
8.7400e+03,8.4844e-05
8.7500e+03,8.3908e-05
8.7600e+03,8.2970e-05
8.7700e+03,8.2207e-05
8.7800e+03,8.1685e-05
8.7900e+03,8.1403e-05
8.8000e+03,8.1322e-05
8.8100e+03,8.1335e-05
8.8200e+03,8.1318e-05
8.8300e+03,8.1193e-05
8.8400e+03,8.0957e-05
8.8500e+03,8.0636e-05
8.8600e+03,8.0239e-05
8.8700e+03,7.9844e-05
8.8800e+03,7.9573e-05
8.8900e+03,7.9405e-05
8.9000e+03,7.9281e-05
8.9100e+03,7.9245e-05
8.9200e+03,7.9357e-05
8.9300e+03,7.9649e-05
8.9400e+03,8.0059e-05
8.9500e+03,8.0350e-05
8.9600e+03,8.0325e-05
8.9700e+03,8.0078e-05
8.9800e+03,7.9812e-05
8.9900e+03,7.9616e-05
9.0000e+03,7.9492e-05
9.0100e+03,7.9440e-05
9.0200e+03,7.9479e-05
9.0300e+03,7.9620e-05
9.0400e+03,7.9857e-05
9.0500e+03,8.0163e-05
9.0600e+03,8.0523e-05
9.0700e+03,8.0906e-05
