# Time , Side-Flux
0.0000e+00,0.0000e+00
1.0000e+01,7.3710e-08
2.0000e+01,1.4545e-07
3.0000e+01,2.1349e-07
4.0000e+01,2.7646e-07
5.0000e+01,3.3350e-07
6.0000e+01,3.8422e-07
7.0000e+01,4.2863e-07
8.0000e+01,4.6703e-07
9.0000e+01,4.9994e-07
1.0000e+02,5.2796e-07
1.1000e+02,5.5172e-07
1.2000e+02,5.7181e-07
1.3000e+02,5.8880e-07
1.4000e+02,6.0316e-07
1.5000e+02,6.1532e-07
1.6000e+02,6.2564e-07
1.7000e+02,6.3443e-07
1.8000e+02,6.4192e-07
1.9000e+02,6.4833e-07
2.0000e+02,6.5384e-07
2.1000e+02,6.5860e-07
2.2000e+02,6.6271e-07
2.3000e+02,6.6628e-07
2.4000e+02,6.6940e-07
2.5000e+02,6.7215e-07
2.6000e+02,6.7457e-07
2.7000e+02,6.7672e-07
2.8000e+02,6.7864e-07
2.9000e+02,6.8036e-07
3.0000e+02,6.8191e-07
3.1000e+02,6.8331e-07
3.2000e+02,6.8457e-07
3.3000e+02,6.8571e-07
3.4000e+02,6.8673e-07
3.5000e+02,6.8765e-07
3.6000e+02,6.8846e-07
3.7000e+02,6.8918e-07
3.8000e+02,6.8981e-07
3.9000e+02,6.9035e-07
4.0000e+02,6.9082e-07
4.1000e+02,6.9122e-07
4.2000e+02,6.9156e-07
4.3000e+02,6.9184e-07
4.4000e+02,6.9208e-07
4.5000e+02,6.9228e-07
4.6000e+02,6.9245e-07
4.7000e+02,6.9258e-07
4.8000e+02,6.9269e-07
4.9000e+02,6.9277e-07
5.0000e+02,6.9283e-07
5.1000e+02,6.9289e-07
5.2000e+02,6.9294e-07
5.3000e+02,6.9299e-07
5.4000e+02,6.9305e-07
5.5000e+02,6.9313e-07
5.6000e+02,6.9322e-07
5.7000e+02,6.9332e-07
5.8000e+02,6.9344e-07
5.9000e+02,6.9357e-07
6.0000e+02,6.9369e-07
6.1000e+02,6.9381e-07
6.2000e+02,6.9389e-07
6.3000e+02,6.9394e-07
6.4000e+02,6.9393e-07
6.5000e+02,6.9387e-07
6.6000e+02,6.9376e-07
6.7000e+02,6.9361e-07
6.8000e+02,6.9344e-07
6.9000e+02,6.9328e-07
7.0000e+02,6.9316e-07
7.1000e+02,6.9311e-07
7.2000e+02,6.9314e-07
7.3000e+02,6.9328e-07
7.4000e+02,6.9352e-07
7.5000e+02,6.9387e-07
7.6000e+02,6.9431e-07
7.7000e+02,6.9483e-07
7.8000e+02,6.9542e-07
7.9000e+02,6.9604e-07
8.0000e+02,6.9669e-07
8.1000e+02,6.9733e-07
8.2000e+02,6.9795e-07
8.3000e+02,6.9852e-07
8.4000e+02,6.9901e-07
8.5000e+02,6.9941e-07
8.6000e+02,6.9971e-07
8.7000e+02,6.9988e-07
8.8000e+02,6.9991e-07
8.9000e+02,6.9980e-07
9.0000e+02,6.9954e-07
9.1000e+02,6.9913e-07
9.2000e+02,6.9856e-07
9.3000e+02,6.9786e-07
9.4000e+02,6.9702e-07
9.5000e+02,6.9609e-07
9.6000e+02,6.9507e-07
9.7000e+02,6.9401e-07
9.8000e+02,6.9294e-07
9.9000e+02,6.9187e-07
1.0000e+03,6.9084e-07
1.0100e+03,6.8985e-07
1.0200e+03,6.8893e-07
1.0300e+03,6.8808e-07
1.0400e+03,6.8732e-07
1.0500e+03,6.8667e-07
1.0600e+03,6.8613e-07
1.0700e+03,6.8574e-07
1.0800e+03,6.8551e-07
1.0900e+03,6.8543e-07
1.1000e+03,6.8552e-07
1.1100e+03,6.8576e-07
1.1200e+03,6.8612e-07
1.1300e+03,6.8659e-07
1.1400e+03,6.8713e-07
1.1500e+03,6.8772e-07
1.1600e+03,6.8832e-07
1.1700e+03,6.8892e-07
1.1800e+03,6.8950e-07
1.1900e+03,6.9006e-07
1.2000e+03,6.9060e-07
1.2100e+03,6.9111e-07
1.2200e+03,6.9161e-07
1.2300e+03,6.9211e-07
1.2400e+03,6.9259e-07
1.2500e+03,6.9308e-07
1.2600e+03,6.9357e-07
1.2700e+03,6.9406e-07
1.2800e+03,6.9454e-07
1.2900e+03,6.9501e-07
1.3000e+03,6.9545e-07
1.3100e+03,6.9587e-07
1.3200e+03,6.9625e-07
1.3300e+03,6.9660e-07
1.3400e+03,6.9690e-07
1.3500e+03,6.9715e-07
1.3600e+03,6.9736e-07
1.3700e+03,6.9753e-07
1.3800e+03,6.9765e-07
1.3900e+03,6.9774e-07
1.4000e+03,6.9779e-07
1.4100e+03,6.9783e-07
1.4200e+03,6.9785e-07
1.4300e+03,6.9786e-07
1.4400e+03,6.9786e-07
1.4500e+03,6.9786e-07
1.4600e+03,6.9787e-07
1.4700e+03,6.9787e-07
1.4800e+03,6.9788e-07
1.4900e+03,6.9789e-07
1.5000e+03,6.9790e-07
1.5100e+03,6.9790e-07
1.5200e+03,6.9791e-07
1.5300e+03,6.9792e-07
1.5400e+03,6.9792e-07
1.5500e+03,6.9791e-07
1.5600e+03,6.9791e-07
1.5700e+03,6.9789e-07
1.5800e+03,6.9787e-07
1.5900e+03,6.9783e-07
1.6000e+03,6.9778e-07
1.6100e+03,6.9771e-07
1.6200e+03,6.9762e-07
1.6300e+03,6.9751e-07
1.6400e+03,6.9738e-07
1.6500e+03,6.9722e-07
1.6600e+03,6.9705e-07
1.6700e+03,6.9686e-07
1.6800e+03,6.9666e-07
1.6900e+03,6.9644e-07
1.7000e+03,6.9622e-07
1.7100e+03,6.9599e-07
1.7200e+03,6.9575e-07
1.7300e+03,6.9552e-07
1.7400e+03,6.9530e-07
1.7500e+03,6.9510e-07
1.7600e+03,6.9491e-07
1.7700e+03,6.9475e-07
1.7800e+03,6.9462e-07
1.7900e+03,6.9452e-07
1.8000e+03,6.9445e-07
1.8100e+03,6.9441e-07
1.8200e+03,6.9440e-07
1.8300e+03,6.9441e-07
1.8400e+03,6.9443e-07
1.8500e+03,6.9447e-07
1.8600e+03,6.9450e-07
1.8700e+03,6.9454e-07
1.8800e+03,6.9455e-07
1.8900e+03,6.9454e-07
1.9000e+03,6.9451e-07
1.9100e+03,6.9444e-07
1.9200e+03,6.9435e-07
1.9300e+03,6.9422e-07
1.9400e+03,6.9408e-07
1.9500e+03,6.9392e-07
1.9600e+03,6.9374e-07
1.9700e+03,6.9356e-07
1.9800e+03,6.9336e-07
1.9900e+03,6.9315e-07
2.0000e+03,6.9292e-07
2.0100e+03,6.9266e-07
2.0200e+03,6.9238e-07
2.0300e+03,6.9208e-07
2.0400e+03,6.9175e-07
2.0500e+03,6.9139e-07
2.0600e+03,6.9102e-07
2.0700e+03,6.9062e-07
2.0800e+03,6.9021e-07
2.0900e+03,6.8980e-07
2.1000e+03,6.8938e-07
2.1100e+03,6.8896e-07
2.1200e+03,6.8856e-07
2.1300e+03,6.8818e-07
2.1400e+03,6.8783e-07
2.1500e+03,6.8753e-07
2.1600e+03,6.8728e-07
2.1700e+03,6.8709e-07
2.1800e+03,6.8698e-07
2.1900e+03,6.8693e-07
2.2000e+03,6.8696e-07
2.2100e+03,6.8705e-07
2.2200e+03,6.8720e-07
2.2300e+03,6.8738e-07
2.2400e+03,6.8760e-07
2.2500e+03,6.8783e-07
2.2600e+03,6.8806e-07
2.2700e+03,6.8828e-07
2.2800e+03,6.8849e-07
2.2900e+03,6.8868e-07
2.3000e+03,6.8885e-07
2.3100e+03,6.8900e-07
2.3200e+03,6.8915e-07
2.3300e+03,6.8928e-07
2.3400e+03,6.8941e-07
2.3500e+03,6.8953e-07
2.3600e+03,6.8965e-07
2.3700e+03,6.8976e-07
2.3800e+03,6.8986e-07
2.3900e+03,6.8996e-07
2.4000e+03,6.9005e-07
2.4100e+03,6.9013e-07
2.4200e+03,6.9020e-07
2.4300e+03,6.9026e-07
2.4400e+03,6.9032e-07
2.4500e+03,6.9037e-07
2.4600e+03,6.9041e-07
2.4700e+03,6.9045e-07
2.4800e+03,6.9048e-07
2.4900e+03,6.9051e-07
2.5000e+03,6.9054e-07
2.5100e+03,6.9056e-07
2.5200e+03,6.9059e-07
2.5300e+03,6.9061e-07
2.5400e+03,6.9062e-07
2.5500e+03,6.9064e-07
2.5600e+03,6.9065e-07
2.5700e+03,6.9066e-07
2.5800e+03,6.9067e-07
2.5900e+03,6.9067e-07
2.6000e+03,6.9067e-07
2.6100e+03,6.9067e-07
2.6200e+03,6.9066e-07
2.6300e+03,6.9065e-07
2.6400e+03,6.9063e-07
2.6500e+03,6.9059e-07
2.6600e+03,6.9055e-07
2.6700e+03,6.9050e-07
2.6800e+03,6.9044e-07
2.6900e+03,6.9036e-07
2.7000e+03,6.9029e-07
2.7100e+03,6.9021e-07
2.7200e+03,6.9013e-07
2.7300e+03,6.9005e-07
2.7400e+03,6.8998e-07
2.7500e+03,6.8991e-07
2.7600e+03,6.8986e-07
2.7700e+03,6.8981e-07
2.7800e+03,6.8977e-07
2.7900e+03,6.8974e-07
2.8000e+03,6.8970e-07
2.8100e+03,6.8966e-07
2.8200e+03,6.8961e-07
2.8300e+03,6.8956e-07
2.8400e+03,6.8951e-07
2.8500e+03,6.8946e-07
2.8600e+03,6.8942e-07
2.8700e+03,6.8940e-07
2.8800e+03,6.8940e-07
2.8900e+03,6.8942e-07
2.9000e+03,6.8946e-07
2.9100e+03,6.8951e-07
2.9200e+03,6.8958e-07
2.9300e+03,6.8968e-07
2.9400e+03,6.8981e-07
2.9500e+03,6.8998e-07
2.9600e+03,6.9019e-07
2.9700e+03,6.9044e-07
2.9800e+03,6.9071e-07
2.9900e+03,6.9098e-07
3.0000e+03,6.9125e-07
3.0100e+03,6.9149e-07
3.0200e+03,6.9169e-07
3.0300e+03,6.9186e-07
3.0400e+03,6.9201e-07
3.0500e+03,6.9215e-07
3.0600e+03,6.9229e-07
3.0700e+03,6.9243e-07
3.0800e+03,6.9256e-07
3.0900e+03,6.9268e-07
3.1000e+03,6.9277e-07
3.1100e+03,6.9281e-07
3.1200e+03,6.9283e-07
3.1300e+03,6.9280e-07
3.1400e+03,6.9276e-07
3.1500e+03,6.9271e-07
3.1600e+03,6.9265e-07
3.1700e+03,6.9260e-07
3.1800e+03,6.9255e-07
3.1900e+03,6.9251e-07
3.2000e+03,6.9247e-07
3.2100e+03,6.9245e-07
3.2200e+03,6.9245e-07
3.2300e+03,6.9248e-07
3.2400e+03,6.9255e-07
3.2500e+03,6.9267e-07
3.2600e+03,6.9283e-07
3.2700e+03,6.9302e-07
3.2800e+03,6.9321e-07
3.2900e+03,6.9339e-07
3.3000e+03,6.9355e-07
3.3100e+03,6.9367e-07
3.3200e+03,6.9375e-07
3.3300e+03,6.9380e-07
3.3400e+03,6.9383e-07
3.3500e+03,6.9386e-07
3.3600e+03,6.9391e-07
3.3700e+03,6.9398e-07
3.3800e+03,6.9407e-07
3.3900e+03,6.9417e-07
3.4000e+03,6.9428e-07
3.4100e+03,6.9436e-07
3.4200e+03,6.9442e-07
3.4300e+03,6.9444e-07
3.4400e+03,6.9443e-07
3.4500e+03,6.9439e-07
3.4600e+03,6.9436e-07
3.4700e+03,6.9433e-07
3.4800e+03,6.9434e-07
3.4900e+03,6.9439e-07
3.5000e+03,6.9447e-07
3.5100e+03,6.9458e-07
3.5200e+03,6.9469e-07
3.5300e+03,6.9479e-07
3.5400e+03,6.9487e-07
3.5500e+03,6.9493e-07
3.5600e+03,6.9495e-07
3.5700e+03,6.9495e-07
3.5800e+03,6.9492e-07
3.5900e+03,6.9488e-07
3.6000e+03,6.9484e-07
3.6100e+03,6.9481e-07
3.6200e+03,6.9478e-07
3.6300e+03,6.9477e-07
3.6400e+03,6.9477e-07
3.6500e+03,6.9479e-07
3.6600e+03,6.9482e-07
3.6700e+03,6.9487e-07
3.6800e+03,6.9491e-07
3.6900e+03,6.9494e-07
3.7000e+03,6.9495e-07
3.7100e+03,6.9490e-07
3.7200e+03,6.9479e-07
3.7300e+03,6.9461e-07
3.7400e+03,6.9436e-07
3.7500e+03,6.9407e-07
3.7600e+03,6.9375e-07
3.7700e+03,6.9345e-07
3.7800e+03,6.9321e-07
3.7900e+03,6.9305e-07
3.8000e+03,6.9300e-07
3.8100e+03,6.9307e-07
3.8200e+03,6.9323e-07
3.8300e+03,6.9348e-07
3.8400e+03,6.9376e-07
3.8500e+03,6.9405e-07
3.8600e+03,6.9431e-07
3.8700e+03,6.9448e-07
3.8800e+03,6.9455e-07
3.8900e+03,6.9448e-07
3.9000e+03,6.9426e-07
3.9100e+03,6.9390e-07
3.9200e+03,6.9341e-07
3.9300e+03,6.9281e-07
3.9400e+03,6.9215e-07
3.9500e+03,6.9147e-07
3.9600e+03,6.9082e-07
3.9700e+03,6.9024e-07
3.9800e+03,6.8977e-07
3.9900e+03,6.8942e-07
4.0000e+03,6.8923e-07
4.0100e+03,6.8919e-07
4.0200e+03,6.8930e-07
4.0300e+03,6.8954e-07
4.0400e+03,6.8988e-07
4.0500e+03,6.9031e-07
4.0600e+03,6.9079e-07
4.0700e+03,6.9128e-07
4.0800e+03,6.9177e-07
4.0900e+03,6.9222e-07
4.1000e+03,6.9263e-07
4.1100e+03,6.9297e-07
4.1200e+03,6.9324e-07
4.1300e+03,6.9344e-07
4.1400e+03,6.9358e-07
4.1500e+03,6.9366e-07
4.1600e+03,6.9370e-07
4.1700e+03,6.9370e-07
4.1800e+03,6.9367e-07
4.1900e+03,6.9363e-07
4.2000e+03,6.9357e-07
4.2100e+03,6.9350e-07
4.2200e+03,6.9344e-07
4.2300e+03,6.9337e-07
4.2400e+03,6.9332e-07
4.2500e+03,6.9328e-07
4.2600e+03,6.9325e-07
4.2700e+03,6.9323e-07
4.2800e+03,6.9323e-07
4.2900e+03,6.9325e-07
4.3000e+03,6.9327e-07
4.3100e+03,6.9332e-07
4.3200e+03,6.9337e-07
4.3300e+03,6.9343e-07
4.3400e+03,6.9350e-07
4.3500e+03,6.9357e-07
4.3600e+03,6.9365e-07
4.3700e+03,6.9372e-07
4.3800e+03,6.9379e-07
4.3900e+03,6.9386e-07
4.4000e+03,6.9392e-07
4.4100e+03,6.9396e-07
4.4200e+03,6.9399e-07
4.4300e+03,6.9400e-07
4.4400e+03,6.9400e-07
4.4500e+03,6.9398e-07
4.4600e+03,6.9394e-07
4.4700e+03,6.9389e-07
4.4800e+03,6.9383e-07
4.4900e+03,6.9376e-07
4.5000e+03,6.9368e-07
4.5100e+03,6.9359e-07
4.5200e+03,6.9351e-07
4.5300e+03,6.9343e-07
4.5400e+03,6.9335e-07
4.5500e+03,6.9327e-07
4.5600e+03,6.9320e-07
4.5700e+03,6.9314e-07
4.5800e+03,6.9309e-07
4.5900e+03,6.9304e-07
4.6000e+03,6.9299e-07
4.6100e+03,6.9295e-07
4.6200e+03,6.9291e-07
4.6300e+03,6.9287e-07
4.6400e+03,6.9283e-07
4.6500e+03,6.9279e-07
4.6600e+03,6.9275e-07
4.6700e+03,6.9271e-07
4.6800e+03,6.9266e-07
4.6900e+03,6.9262e-07
4.7000e+03,6.9258e-07
4.7100e+03,6.9253e-07
4.7200e+03,6.9248e-07
4.7300e+03,6.9241e-07
4.7400e+03,6.9230e-07
4.7500e+03,6.9216e-07
4.7600e+03,6.9195e-07
4.7700e+03,6.9166e-07
4.7800e+03,6.9127e-07
4.7900e+03,6.9077e-07
4.8000e+03,6.9014e-07
4.8100e+03,6.8937e-07
4.8200e+03,6.8846e-07
4.8300e+03,6.8741e-07
4.8400e+03,6.8623e-07
4.8500e+03,6.8493e-07
4.8600e+03,6.8352e-07
4.8700e+03,6.8203e-07
4.8800e+03,6.8048e-07
4.8900e+03,6.7889e-07
4.9000e+03,6.7729e-07
4.9100e+03,6.7573e-07
4.9200e+03,6.7424e-07
4.9300e+03,6.7286e-07
4.9400e+03,6.7166e-07
4.9500e+03,6.7069e-07
4.9600e+03,6.6999e-07
4.9700e+03,6.6964e-07
4.9800e+03,6.6965e-07
4.9900e+03,6.7009e-07
5.0000e+03,6.7096e-07
5.0100e+03,6.7229e-07
5.0200e+03,6.7408e-07
5.0300e+03,6.7633e-07
5.0400e+03,6.7901e-07
5.0500e+03,6.8209e-07
5.0600e+03,6.8550e-07
5.0700e+03,6.8918e-07
5.0800e+03,6.9302e-07
5.0900e+03,6.9692e-07
5.1000e+03,7.0076e-07
5.1100e+03,7.0440e-07
5.1200e+03,7.0771e-07
5.1300e+03,7.1058e-07
5.1400e+03,7.1289e-07
5.1500e+03,7.1457e-07
5.1600e+03,7.1555e-07
5.1700e+03,7.1581e-07
5.1800e+03,7.1536e-07
5.1900e+03,7.1425e-07
5.2000e+03,7.1253e-07
5.2100e+03,7.1031e-07
5.2200e+03,7.0769e-07
5.2300e+03,7.0479e-07
5.2400e+03,7.0174e-07
5.2500e+03,6.9865e-07
5.2600e+03,6.9562e-07
5.2700e+03,6.9275e-07
5.2800e+03,6.9010e-07
5.2900e+03,6.8774e-07
5.3000e+03,6.8571e-07
5.3100e+03,6.8404e-07
5.3200e+03,6.8275e-07
5.3300e+03,6.8183e-07
5.3400e+03,6.8129e-07
5.3500e+03,6.8109e-07
5.3600e+03,6.8122e-07
5.3700e+03,6.8165e-07
5.3800e+03,6.8234e-07
5.3900e+03,6.8324e-07
5.4000e+03,6.8430e-07
5.4100e+03,6.8550e-07
5.4200e+03,6.8677e-07
5.4300e+03,6.8807e-07
5.4400e+03,6.8937e-07
5.4500e+03,6.9062e-07
5.4600e+03,6.9179e-07
5.4700e+03,6.9284e-07
5.4800e+03,6.9376e-07
5.4900e+03,6.9453e-07
5.5000e+03,6.9514e-07
5.5100e+03,6.9558e-07
5.5200e+03,6.9588e-07
5.5300e+03,6.9604e-07
5.5400e+03,6.9609e-07
5.5500e+03,6.9605e-07
5.5600e+03,6.9595e-07
5.5700e+03,6.9580e-07
5.5800e+03,6.9564e-07
5.5900e+03,6.9547e-07
5.6000e+03,6.9531e-07
5.6100e+03,6.9517e-07
5.6200e+03,6.9505e-07
5.6300e+03,6.9494e-07
5.6400e+03,6.9486e-07
5.6500e+03,6.9481e-07
5.6600e+03,6.9477e-07
5.6700e+03,6.9476e-07
5.6800e+03,6.9478e-07
5.6900e+03,6.9484e-07
5.7000e+03,6.9493e-07
5.7100e+03,6.9507e-07
5.7200e+03,6.9526e-07
5.7300e+03,6.9552e-07
5.7400e+03,6.9586e-07
5.7500e+03,6.9628e-07
5.7600e+03,6.9679e-07
5.7700e+03,6.9740e-07
5.7800e+03,6.9809e-07
5.7900e+03,6.9886e-07
5.8000e+03,6.9968e-07
5.8100e+03,7.0053e-07
5.8200e+03,7.0137e-07
5.8300e+03,7.0218e-07
5.8400e+03,7.0293e-07
5.8500e+03,7.0359e-07
5.8600e+03,7.0415e-07
5.8700e+03,7.0460e-07
5.8800e+03,7.0491e-07
5.8900e+03,7.0509e-07
5.9000e+03,7.0512e-07
5.9100e+03,7.0499e-07
5.9200e+03,7.0468e-07
5.9300e+03,7.0420e-07
5.9400e+03,7.0353e-07
5.9500e+03,7.0267e-07
5.9600e+03,7.0162e-07
5.9700e+03,7.0037e-07
5.9800e+03,6.9892e-07
5.9900e+03,6.9727e-07
6.0000e+03,6.9542e-07
6.0100e+03,6.9337e-07
6.0200e+03,6.9110e-07
6.0300e+03,6.8862e-07
6.0400e+03,6.8594e-07
6.0500e+03,6.8306e-07
6.0600e+03,6.7999e-07
6.0700e+03,6.7675e-07
6.0800e+03,6.7336e-07
6.0900e+03,6.6984e-07
6.1000e+03,6.6620e-07
6.1100e+03,6.6247e-07
6.1200e+03,6.5864e-07
6.1300e+03,6.5475e-07
6.1400e+03,6.5079e-07
6.1500e+03,6.4678e-07
6.1600e+03,6.4273e-07
6.1700e+03,6.3867e-07
6.1800e+03,6.3462e-07
6.1900e+03,6.3061e-07
6.2000e+03,6.2666e-07
6.2100e+03,6.2280e-07
6.2200e+03,6.1906e-07
6.2300e+03,6.1547e-07
6.2400e+03,6.1205e-07
6.2500e+03,6.0882e-07
6.2600e+03,6.0579e-07
6.2700e+03,6.0298e-07
6.2800e+03,6.0041e-07
6.2900e+03,5.9809e-07
6.3000e+03,5.9602e-07
6.3100e+03,5.9423e-07
6.3200e+03,5.9269e-07
6.3300e+03,5.9140e-07
6.3400e+03,5.9035e-07
6.3500e+03,5.8951e-07
6.3600e+03,5.8886e-07
6.3700e+03,5.8838e-07
6.3800e+03,5.8805e-07
6.3900e+03,5.8788e-07
6.4000e+03,5.8786e-07
6.4100e+03,5.8799e-07
6.4200e+03,5.8830e-07
6.4300e+03,5.8879e-07
6.4400e+03,5.8948e-07
6.4500e+03,5.9036e-07
6.4600e+03,5.9145e-07
6.4700e+03,5.9273e-07
6.4800e+03,5.9419e-07
6.4900e+03,5.9582e-07
6.5000e+03,5.9759e-07
6.5100e+03,5.9947e-07
6.5200e+03,6.0145e-07
6.5300e+03,6.0348e-07
6.5400e+03,6.0553e-07
6.5500e+03,6.0756e-07
6.5600e+03,6.0954e-07
6.5700e+03,6.1142e-07
6.5800e+03,6.1316e-07
6.5900e+03,6.1475e-07
6.6000e+03,6.1616e-07
6.6100e+03,6.1739e-07
6.6200e+03,6.1843e-07
6.6300e+03,6.1929e-07
6.6400e+03,6.2000e-07
6.6500e+03,6.2057e-07
6.6600e+03,6.2102e-07
6.6700e+03,6.2140e-07
6.6800e+03,6.2171e-07
6.6900e+03,6.2199e-07
6.7000e+03,6.2225e-07
6.7100e+03,6.2250e-07
6.7200e+03,6.2273e-07
6.7300e+03,6.2296e-07
6.7400e+03,6.2318e-07
6.7500e+03,6.2338e-07
6.7600e+03,6.2357e-07
6.7700e+03,6.2374e-07
6.7800e+03,6.2390e-07
6.7900e+03,6.2405e-07
6.8000e+03,6.2418e-07
6.8100e+03,6.2430e-07
6.8200e+03,6.2440e-07
6.8300e+03,6.2447e-07
6.8400e+03,6.2450e-07
6.8500e+03,6.2450e-07
6.8600e+03,6.2447e-07
6.8700e+03,6.2444e-07
6.8800e+03,6.2441e-07
6.8900e+03,6.2441e-07
6.9000e+03,6.2447e-07
6.9100e+03,6.2458e-07
6.9200e+03,6.2477e-07
6.9300e+03,6.2502e-07
6.9400e+03,6.2533e-07
6.9500e+03,6.2569e-07
6.9600e+03,6.2609e-07
6.9700e+03,6.2653e-07
6.9800e+03,6.2701e-07
6.9900e+03,6.2752e-07
7.0000e+03,6.2806e-07
7.0100e+03,6.2866e-07
7.0200e+03,6.2933e-07
7.0300e+03,6.3006e-07
7.0400e+03,6.3088e-07
7.0500e+03,6.3178e-07
7.0600e+03,6.3278e-07
7.0700e+03,6.3388e-07
7.0800e+03,6.3510e-07
7.0900e+03,6.3644e-07
7.1000e+03,6.3792e-07
7.1100e+03,6.3957e-07
7.1200e+03,6.4139e-07
7.1300e+03,6.4341e-07
7.1400e+03,6.4565e-07
7.1500e+03,6.4811e-07
7.1600e+03,6.5081e-07
7.1700e+03,6.5372e-07
7.1800e+03,6.5685e-07
7.1900e+03,6.6016e-07
7.2000e+03,6.6361e-07
7.2100e+03,6.6713e-07
7.2200e+03,6.7065e-07
7.2300e+03,6.7413e-07
7.2400e+03,6.7748e-07
7.2500e+03,6.8068e-07
7.2600e+03,6.8371e-07
7.2700e+03,6.8658e-07
7.2800e+03,6.8932e-07
7.2900e+03,6.9200e-07
7.3000e+03,6.9466e-07
7.3100e+03,6.9735e-07
7.3200e+03,7.0012e-07
7.3300e+03,7.0296e-07
7.3400e+03,7.0588e-07
7.3500e+03,7.0884e-07
7.3600e+03,7.1182e-07
7.3700e+03,7.1477e-07
7.3800e+03,7.1767e-07
7.3900e+03,7.2050e-07
7.4000e+03,7.2325e-07
7.4100e+03,7.2594e-07
7.4200e+03,7.2858e-07
7.4300e+03,7.3120e-07
7.4400e+03,7.3384e-07
7.4500e+03,7.3653e-07
7.4600e+03,7.3927e-07
7.4700e+03,7.4208e-07
7.4800e+03,7.4494e-07
7.4900e+03,7.4784e-07
7.5000e+03,7.5072e-07
7.5100e+03,7.5357e-07
7.5200e+03,7.5632e-07
7.5300e+03,7.5893e-07
7.5400e+03,7.6137e-07
7.5500e+03,7.6359e-07
7.5600e+03,7.6558e-07
7.5700e+03,7.6733e-07
7.5800e+03,7.6882e-07
7.5900e+03,7.7008e-07
7.6000e+03,7.7113e-07
7.6100e+03,7.7198e-07
7.6200e+03,7.7268e-07
7.6300e+03,7.7326e-07
7.6400e+03,7.7373e-07
7.6500e+03,7.7412e-07
7.6600e+03,7.7445e-07
7.6700e+03,7.7474e-07
7.6800e+03,7.7501e-07
7.6900e+03,7.7525e-07
7.7000e+03,7.7547e-07
7.7100e+03,7.7568e-07
7.7200e+03,7.7589e-07
7.7300e+03,7.7609e-07
7.7400e+03,7.7629e-07
7.7500e+03,7.7650e-07
7.7600e+03,7.7672e-07
7.7700e+03,7.7698e-07
7.7800e+03,7.7727e-07
7.7900e+03,7.7762e-07
7.8000e+03,7.7802e-07
7.8100e+03,7.7851e-07
7.8200e+03,7.7908e-07
7.8300e+03,7.7977e-07
7.8400e+03,7.8057e-07
7.8500e+03,7.8151e-07
7.8600e+03,7.8260e-07
7.8700e+03,7.8383e-07
7.8800e+03,7.8521e-07
7.8900e+03,7.8674e-07
7.9000e+03,7.8841e-07
7.9100e+03,7.9022e-07
7.9200e+03,7.9215e-07
7.9300e+03,7.9419e-07
7.9400e+03,7.9632e-07
7.9500e+03,7.9851e-07
7.9600e+03,8.0075e-07
7.9700e+03,8.0299e-07
7.9800e+03,8.0520e-07
7.9900e+03,8.0735e-07
8.0000e+03,8.0940e-07
8.0100e+03,8.1132e-07
8.0200e+03,8.1309e-07
8.0300e+03,8.1469e-07
8.0400e+03,8.1609e-07
8.0500e+03,8.1728e-07
8.0600e+03,8.1826e-07
8.0700e+03,8.1901e-07
8.0800e+03,8.1955e-07
8.0900e+03,8.1989e-07
8.1000e+03,8.2004e-07
8.1100e+03,8.2006e-07
8.1200e+03,8.1998e-07
8.1300e+03,8.1985e-07
8.1400e+03,8.1973e-07
8.1500e+03,8.1967e-07
8.1600e+03,8.1970e-07
8.1700e+03,8.1987e-07
8.1800e+03,8.2017e-07
8.1900e+03,8.2063e-07
8.2000e+03,8.2124e-07
8.2100e+03,8.2197e-07
8.2200e+03,8.2281e-07
8.2300e+03,8.2370e-07
8.2400e+03,8.2463e-07
8.2500e+03,8.2553e-07
8.2600e+03,8.2636e-07
8.2700e+03,8.2709e-07
8.2800e+03,8.2767e-07
8.2900e+03,8.2808e-07
8.3000e+03,8.2829e-07
8.3100e+03,8.2830e-07
8.3200e+03,8.2811e-07
8.3300e+03,8.2775e-07
8.3400e+03,8.2722e-07
8.3500e+03,8.2656e-07
8.3600e+03,8.2577e-07
8.3700e+03,8.2488e-07
8.3800e+03,8.2391e-07
8.3900e+03,8.2286e-07
8.4000e+03,8.2176e-07
8.4100e+03,8.2062e-07
8.4200e+03,8.1946e-07
8.4300e+03,8.1829e-07
8.4400e+03,8.1713e-07
8.4500e+03,8.1600e-07
8.4600e+03,8.1491e-07
8.4700e+03,8.1385e-07
8.4800e+03,8.1283e-07
8.4900e+03,8.1182e-07
8.5000e+03,8.1080e-07
8.5100e+03,8.0973e-07
8.5200e+03,8.0858e-07
8.5300e+03,8.0732e-07
8.5400e+03,8.0593e-07
8.5500e+03,8.0441e-07
8.5600e+03,8.0278e-07
8.5700e+03,8.0106e-07
8.5800e+03,7.9929e-07
8.5900e+03,7.9752e-07
8.6000e+03,7.9580e-07
8.6100e+03,7.9417e-07
8.6200e+03,7.9269e-07
8.6300e+03,7.9138e-07
8.6400e+03,7.9027e-07
8.6500e+03,7.8936e-07
8.6600e+03,7.8864e-07
8.6700e+03,7.8810e-07
8.6800e+03,7.8770e-07
8.6900e+03,7.8740e-07
8.7000e+03,7.8717e-07
8.7100e+03,7.8698e-07
8.7200e+03,7.8678e-07
8.7300e+03,7.8658e-07
8.7400e+03,7.8634e-07
8.7500e+03,7.8606e-07
8.7600e+03,7.8572e-07
8.7700e+03,7.8530e-07
8.7800e+03,7.8479e-07
8.7900e+03,7.8415e-07
8.8000e+03,7.8335e-07
8.8100e+03,7.8237e-07
8.8200e+03,7.8119e-07
8.8300e+03,7.7982e-07
8.8400e+03,7.7826e-07
8.8500e+03,7.7655e-07
8.8600e+03,7.7475e-07
8.8700e+03,7.7291e-07
8.8800e+03,7.7108e-07
8.8900e+03,7.6934e-07
8.9000e+03,7.6774e-07
8.9100e+03,7.6631e-07
8.9200e+03,7.6507e-07
8.9300e+03,7.6405e-07
8.9400e+03,7.6324e-07
8.9500e+03,7.6260e-07
8.9600e+03,7.6212e-07
8.9700e+03,7.6174e-07
8.9800e+03,7.6141e-07
8.9900e+03,7.6109e-07
9.0000e+03,7.6072e-07
9.0100e+03,7.6027e-07
9.0200e+03,7.5972e-07
9.0300e+03,7.5908e-07
9.0400e+03,7.5834e-07
9.0500e+03,7.5754e-07
9.0600e+03,7.5670e-07
9.0700e+03,7.5586e-07
