# Time , Side-Flux
0.0000e+00,0.0000e+00
1.0000e+01,3.0330e-07
2.0000e+01,5.9111e-07
3.0000e+01,8.5116e-07
4.0000e+01,1.0762e-06
5.0000e+01,1.2643e-06
6.0000e+01,1.4174e-06
7.0000e+01,1.5398e-06
8.0000e+01,1.6366e-06
9.0000e+01,1.7127e-06
1.0000e+02,1.7726e-06
1.1000e+02,1.8198e-06
1.2000e+02,1.8572e-06
1.3000e+02,1.8871e-06
1.4000e+02,1.9110e-06
1.5000e+02,1.9304e-06
1.6000e+02,1.9462e-06
1.7000e+02,1.9592e-06
1.8000e+02,1.9699e-06
1.9000e+02,1.9788e-06
2.0000e+02,1.9862e-06
2.1000e+02,1.9924e-06
2.2000e+02,1.9977e-06
2.3000e+02,2.0022e-06
2.4000e+02,2.0060e-06
2.5000e+02,2.0092e-06
2.6000e+02,2.0121e-06
2.7000e+02,2.0146e-06
2.8000e+02,2.0168e-06
2.9000e+02,2.0189e-06
3.0000e+02,2.0208e-06
3.1000e+02,2.0225e-06
3.2000e+02,2.0241e-06
3.3000e+02,2.0256e-06
3.4000e+02,2.0270e-06
3.5000e+02,2.0283e-06
3.6000e+02,2.0294e-06
3.7000e+02,2.0304e-06
3.8000e+02,2.0313e-06
3.9000e+02,2.0321e-06
4.0000e+02,2.0327e-06
4.1000e+02,2.0332e-06
4.2000e+02,2.0335e-06
4.3000e+02,2.0338e-06
4.4000e+02,2.0341e-06
4.5000e+02,2.0344e-06
4.6000e+02,2.0346e-06
4.7000e+02,2.0347e-06
4.8000e+02,2.0348e-06
4.9000e+02,2.0349e-06
5.0000e+02,2.0349e-06
5.1000e+02,2.0349e-06
5.2000e+02,2.0348e-06
5.3000e+02,2.0348e-06
5.4000e+02,2.0348e-06
5.5000e+02,2.0348e-06
5.6000e+02,2.0349e-06
5.7000e+02,2.0350e-06
5.8000e+02,2.0352e-06
5.9000e+02,2.0355e-06
6.0000e+02,2.0357e-06
6.1000e+02,2.0360e-06
6.2000e+02,2.0362e-06
6.3000e+02,2.0362e-06
6.4000e+02,2.0360e-06
6.5000e+02,2.0355e-06
6.6000e+02,2.0347e-06
6.7000e+02,2.0338e-06
6.8000e+02,2.0326e-06
6.9000e+02,2.0315e-06
7.0000e+02,2.0305e-06
7.1000e+02,2.0297e-06
7.2000e+02,2.0292e-06
7.3000e+02,2.0290e-06
7.4000e+02,2.0292e-06
7.5000e+02,2.0298e-06
7.6000e+02,2.0306e-06
7.7000e+02,2.0316e-06
7.8000e+02,2.0327e-06
7.9000e+02,2.0340e-06
8.0000e+02,2.0352e-06
8.1000e+02,2.0365e-06
8.2000e+02,2.0378e-06
8.3000e+02,2.0389e-06
8.4000e+02,2.0400e-06
8.5000e+02,2.0408e-06
8.6000e+02,2.0415e-06
8.7000e+02,2.0419e-06
8.8000e+02,2.0421e-06
8.9000e+02,2.0419e-06
9.0000e+02,2.0415e-06
9.1000e+02,2.0406e-06
9.2000e+02,2.0393e-06
9.3000e+02,2.0376e-06
9.4000e+02,2.0355e-06
9.5000e+02,2.0331e-06
9.6000e+02,2.0306e-06
9.7000e+02,2.0281e-06
9.8000e+02,2.0256e-06
9.9000e+02,2.0233e-06
1.0000e+03,2.0212e-06
1.0100e+03,2.0192e-06
1.0200e+03,2.0172e-06
1.0300e+03,2.0152e-06
1.0400e+03,2.0132e-06
1.0500e+03,2.0111e-06
1.0600e+03,2.0092e-06
1.0700e+03,2.0075e-06
1.0800e+03,2.0062e-06
1.0900e+03,2.0054e-06
1.1000e+03,2.0052e-06
1.1100e+03,2.0055e-06
1.1200e+03,2.0063e-06
1.1300e+03,2.0073e-06
1.1400e+03,2.0086e-06
1.1500e+03,2.0099e-06
1.1600e+03,2.0112e-06
1.1700e+03,2.0123e-06
1.1800e+03,2.0132e-06
1.1900e+03,2.0140e-06
1.2000e+03,2.0147e-06
1.2100e+03,2.0152e-06
1.2200e+03,2.0157e-06
1.2300e+03,2.0161e-06
1.2400e+03,2.0165e-06
1.2500e+03,2.0170e-06
1.2600e+03,2.0176e-06
1.2700e+03,2.0183e-06
1.2800e+03,2.0191e-06
1.2900e+03,2.0198e-06
1.3000e+03,2.0206e-06
1.3100e+03,2.0213e-06
1.3200e+03,2.0219e-06
1.3300e+03,2.0225e-06
1.3400e+03,2.0229e-06
1.3500e+03,2.0233e-06
1.3600e+03,2.0235e-06
1.3700e+03,2.0237e-06
1.3800e+03,2.0238e-06
1.3900e+03,2.0238e-06
1.4000e+03,2.0238e-06
1.4100e+03,2.0237e-06
1.4200e+03,2.0236e-06
1.4300e+03,2.0235e-06
1.4400e+03,2.0235e-06
1.4500e+03,2.0234e-06
1.4600e+03,2.0234e-06
1.4700e+03,2.0234e-06
1.4800e+03,2.0234e-06
1.4900e+03,2.0234e-06
1.5000e+03,2.0234e-06
1.5100e+03,2.0234e-06
1.5200e+03,2.0235e-06
1.5300e+03,2.0235e-06
1.5400e+03,2.0235e-06
1.5500e+03,2.0235e-06
1.5600e+03,2.0235e-06
1.5700e+03,2.0235e-06
1.5800e+03,2.0235e-06
1.5900e+03,2.0234e-06
1.6000e+03,2.0233e-06
1.6100e+03,2.0232e-06
1.6200e+03,2.0230e-06
1.6300e+03,2.0228e-06
1.6400e+03,2.0225e-06
1.6500e+03,2.0222e-06
1.6600e+03,2.0218e-06
1.6700e+03,2.0214e-06
1.6800e+03,2.0211e-06
1.6900e+03,2.0207e-06
1.7000e+03,2.0204e-06
1.7100e+03,2.0199e-06
1.7200e+03,2.0195e-06
1.7300e+03,2.0190e-06
1.7400e+03,2.0185e-06
1.7500e+03,2.0180e-06
1.7600e+03,2.0176e-06
1.7700e+03,2.0173e-06
1.7800e+03,2.0171e-06
1.7900e+03,2.0170e-06
1.8000e+03,2.0169e-06
1.8100e+03,2.0169e-06
1.8200e+03,2.0169e-06
1.8300e+03,2.0170e-06
1.8400e+03,2.0171e-06
1.8500e+03,2.0173e-06
1.8600e+03,2.0174e-06
1.8700e+03,2.0176e-06
1.8800e+03,2.0177e-06
1.8900e+03,2.0177e-06
1.9000e+03,2.0176e-06
1.9100e+03,2.0175e-06
1.9200e+03,2.0172e-06
1.9300e+03,2.0169e-06
1.9400e+03,2.0166e-06
1.9500e+03,2.0163e-06
1.9600e+03,2.0160e-06
1.9700e+03,2.0158e-06
1.9800e+03,2.0156e-06
1.9900e+03,2.0154e-06
2.0000e+03,2.0151e-06
2.0100e+03,2.0147e-06
2.0200e+03,2.0142e-06
2.0300e+03,2.0136e-06
2.0400e+03,2.0130e-06
2.0500e+03,2.0124e-06
2.0600e+03,2.0116e-06
2.0700e+03,2.0109e-06
2.0800e+03,2.0101e-06
2.0900e+03,2.0092e-06
2.1000e+03,2.0082e-06
2.1100e+03,2.0072e-06
2.1200e+03,2.0062e-06
2.1300e+03,2.0051e-06
2.1400e+03,2.0041e-06
2.1500e+03,2.0031e-06
2.1600e+03,2.0022e-06
2.1700e+03,2.0015e-06
2.1800e+03,2.0009e-06
2.1900e+03,2.0005e-06
2.2000e+03,2.0004e-06
2.2100e+03,2.0005e-06
2.2200e+03,2.0008e-06
2.2300e+03,2.0013e-06
2.2400e+03,2.0018e-06
2.2500e+03,2.0024e-06
2.2600e+03,2.0030e-06
2.2700e+03,2.0034e-06
2.2800e+03,2.0038e-06
2.2900e+03,2.0041e-06
2.3000e+03,2.0043e-06
2.3100e+03,2.0044e-06
2.3200e+03,2.0046e-06
2.3300e+03,2.0047e-06
2.3400e+03,2.0048e-06
2.3500e+03,2.0050e-06
2.3600e+03,2.0051e-06
2.3700e+03,2.0053e-06
2.3800e+03,2.0054e-06
2.3900e+03,2.0056e-06
2.4000e+03,2.0057e-06
2.4100e+03,2.0058e-06
2.4200e+03,2.0059e-06
2.4300e+03,2.0060e-06
2.4400e+03,2.0061e-06
2.4500e+03,2.0061e-06
2.4600e+03,2.0062e-06
2.4700e+03,2.0062e-06
2.4800e+03,2.0062e-06
2.4900e+03,2.0062e-06
2.5000e+03,2.0062e-06
2.5100e+03,2.0062e-06
2.5200e+03,2.0062e-06
2.5300e+03,2.0062e-06
2.5400e+03,2.0063e-06
2.5500e+03,2.0063e-06
2.5600e+03,2.0063e-06
2.5700e+03,2.0063e-06
2.5800e+03,2.0063e-06
2.5900e+03,2.0063e-06
2.6000e+03,2.0063e-06
2.6100e+03,2.0062e-06
2.6200e+03,2.0062e-06
2.6300e+03,2.0062e-06
2.6400e+03,2.0061e-06
2.6500e+03,2.0061e-06
2.6600e+03,2.0059e-06
2.6700e+03,2.0057e-06
2.6800e+03,2.0055e-06
2.6900e+03,2.0052e-06
2.7000e+03,2.0050e-06
2.7100e+03,2.0048e-06
2.7200e+03,2.0046e-06
2.7300e+03,2.0045e-06
2.7400e+03,2.0043e-06
2.7500e+03,2.0042e-06
2.7600e+03,2.0040e-06
2.7700e+03,2.0040e-06
2.7800e+03,2.0040e-06
2.7900e+03,2.0040e-06
2.8000e+03,2.0040e-06
2.8100e+03,2.0040e-06
2.8200e+03,2.0038e-06
2.8300e+03,2.0035e-06
2.8400e+03,2.0031e-06
2.8500e+03,2.0029e-06
2.8600e+03,2.0027e-06
2.8700e+03,2.0026e-06
2.8800e+03,2.0027e-06
2.8900e+03,2.0029e-06
2.9000e+03,2.0029e-06
2.9100e+03,2.0027e-06
2.9200e+03,2.0023e-06
2.9300e+03,2.0017e-06
2.9400e+03,2.0013e-06
2.9500e+03,2.0011e-06
2.9600e+03,2.0013e-06
2.9700e+03,2.0021e-06
2.9800e+03,2.0032e-06
2.9900e+03,2.0045e-06
3.0000e+03,2.0056e-06
3.0100e+03,2.0064e-06
3.0200e+03,2.0068e-06
3.0300e+03,2.0066e-06
3.0400e+03,2.0062e-06
3.0500e+03,2.0057e-06
3.0600e+03,2.0053e-06
3.0700e+03,2.0054e-06
3.0800e+03,2.0058e-06
3.0900e+03,2.0065e-06
3.1000e+03,2.0072e-06
3.1100e+03,2.0078e-06
3.1200e+03,2.0082e-06
3.1300e+03,2.0082e-06
3.1400e+03,2.0079e-06
3.1500e+03,2.0075e-06
3.1600e+03,2.0068e-06
3.1700e+03,2.0061e-06
3.1800e+03,2.0052e-06
3.1900e+03,2.0043e-06
3.2000e+03,2.0033e-06
3.2100e+03,2.0025e-06
3.2200e+03,2.0019e-06
3.2300e+03,2.0016e-06
3.2400e+03,2.0018e-06
3.2500e+03,2.0025e-06
3.2600e+03,2.0035e-06
3.2700e+03,2.0048e-06
3.2800e+03,2.0060e-06
3.2900e+03,2.0070e-06
3.3000e+03,2.0076e-06
3.3100e+03,2.0078e-06
3.3200e+03,2.0075e-06
3.3300e+03,2.0069e-06
3.3400e+03,2.0062e-06
3.3500e+03,2.0054e-06
3.3600e+03,2.0048e-06
3.3700e+03,2.0045e-06
3.3800e+03,2.0044e-06
3.3900e+03,2.0046e-06
3.4000e+03,2.0048e-06
3.4100e+03,2.0050e-06
3.4200e+03,2.0050e-06
3.4300e+03,2.0047e-06
3.4400e+03,2.0041e-06
3.4500e+03,2.0034e-06
3.4600e+03,2.0027e-06
3.4700e+03,2.0022e-06
3.4800e+03,2.0021e-06
3.4900e+03,2.0023e-06
3.5000e+03,2.0029e-06
3.5100e+03,2.0037e-06
3.5200e+03,2.0045e-06
3.5300e+03,2.0053e-06
3.5400e+03,2.0059e-06
3.5500e+03,2.0062e-06
3.5600e+03,2.0064e-06
3.5700e+03,2.0064e-06
3.5800e+03,2.0063e-06
3.5900e+03,2.0062e-06
3.6000e+03,2.0060e-06
3.6100e+03,2.0060e-06
3.6200e+03,2.0059e-06
3.6300e+03,2.0059e-06
3.6400e+03,2.0059e-06
3.6500e+03,2.0060e-06
3.6600e+03,2.0062e-06
3.6700e+03,2.0065e-06
3.6800e+03,2.0068e-06
3.6900e+03,2.0072e-06
3.7000e+03,2.0074e-06
3.7100e+03,2.0074e-06
3.7200e+03,2.0069e-06
3.7300e+03,2.0058e-06
3.7400e+03,2.0042e-06
3.7500e+03,2.0021e-06
3.7600e+03,1.9998e-06
3.7700e+03,1.9977e-06
3.7800e+03,1.9960e-06
3.7900e+03,1.9952e-06
3.8000e+03,1.9954e-06
3.8100e+03,1.9965e-06
3.8200e+03,1.9984e-06
3.8300e+03,2.0008e-06
3.8400e+03,2.0036e-06
3.8500e+03,2.0063e-06
3.8600e+03,2.0089e-06
3.8700e+03,2.0110e-06
3.8800e+03,2.0123e-06
3.8900e+03,2.0127e-06
3.9000e+03,2.0120e-06
3.9100e+03,2.0099e-06
3.9200e+03,2.0066e-06
3.9300e+03,2.0022e-06
3.9400e+03,1.9969e-06
3.9500e+03,1.9910e-06
3.9600e+03,1.9850e-06
3.9700e+03,1.9792e-06
3.9800e+03,1.9739e-06
3.9900e+03,1.9693e-06
4.0000e+03,1.9658e-06
4.0100e+03,1.9632e-06
4.0200e+03,1.9618e-06
4.0300e+03,1.9614e-06
4.0400e+03,1.9621e-06
4.0500e+03,1.9637e-06
4.0600e+03,1.9661e-06
4.0700e+03,1.9691e-06
4.0800e+03,1.9725e-06
4.0900e+03,1.9761e-06
4.1000e+03,1.9797e-06
4.1100e+03,1.9830e-06
4.1200e+03,1.9860e-06
4.1300e+03,1.9886e-06
4.1400e+03,1.9906e-06
4.1500e+03,1.9920e-06
4.1600e+03,1.9929e-06
4.1700e+03,1.9933e-06
4.1800e+03,1.9933e-06
4.1900e+03,1.9930e-06
4.2000e+03,1.9924e-06
4.2100e+03,1.9917e-06
4.2200e+03,1.9910e-06
4.2300e+03,1.9902e-06
4.2400e+03,1.9896e-06
4.2500e+03,1.9890e-06
4.2600e+03,1.9886e-06
4.2700e+03,1.9883e-06
4.2800e+03,1.9882e-06
4.2900e+03,1.9882e-06
4.3000e+03,1.9884e-06
4.3100e+03,1.9887e-06
4.3200e+03,1.9890e-06
4.3300e+03,1.9895e-06
4.3400e+03,1.9900e-06
4.3500e+03,1.9905e-06
4.3600e+03,1.9910e-06
4.3700e+03,1.9916e-06
4.3800e+03,1.9920e-06
4.3900e+03,1.9925e-06
4.4000e+03,1.9928e-06
4.4100e+03,1.9930e-06
4.4200e+03,1.9931e-06
4.4300e+03,1.9931e-06
4.4400e+03,1.9930e-06
4.4500e+03,1.9927e-06
4.4600e+03,1.9923e-06
4.4700e+03,1.9918e-06
4.4800e+03,1.9912e-06
4.4900e+03,1.9906e-06
4.5000e+03,1.9900e-06
4.5100e+03,1.9894e-06
4.5200e+03,1.9889e-06
4.5300e+03,1.9883e-06
4.5400e+03,1.9879e-06
4.5500e+03,1.9875e-06
4.5600e+03,1.9872e-06
4.5700e+03,1.9869e-06
4.5800e+03,1.9867e-06
4.5900e+03,1.9865e-06
4.6000e+03,1.9864e-06
4.6100e+03,1.9863e-06
4.6200e+03,1.9861e-06
4.6300e+03,1.9860e-06
4.6400e+03,1.9858e-06
4.6500e+03,1.9855e-06
4.6600e+03,1.9852e-06
4.6700e+03,1.9848e-06
4.6800e+03,1.9843e-06
4.6900e+03,1.9838e-06
4.7000e+03,1.9831e-06
4.7100e+03,1.9823e-06
4.7200e+03,1.9812e-06
4.7300e+03,1.9800e-06
4.7400e+03,1.9784e-06
4.7500e+03,1.9764e-06
4.7600e+03,1.9739e-06
4.7700e+03,1.9708e-06
4.7800e+03,1.9671e-06
4.7900e+03,1.9627e-06
4.8000e+03,1.9577e-06
4.8100e+03,1.9521e-06
4.8200e+03,1.9459e-06
4.8300e+03,1.9395e-06
4.8400e+03,1.9328e-06
4.8500e+03,1.9260e-06
4.8600e+03,1.9192e-06
4.8700e+03,1.9124e-06
4.8800e+03,1.9056e-06
4.8900e+03,1.8990e-06
4.9000e+03,1.8926e-06
4.9100e+03,1.8864e-06
4.9200e+03,1.8805e-06
4.9300e+03,1.8749e-06
4.9400e+03,1.8700e-06
4.9500e+03,1.8659e-06
4.9600e+03,1.8629e-06
4.9700e+03,1.8613e-06
4.9800e+03,1.8612e-06
4.9900e+03,1.8628e-06
5.0000e+03,1.8659e-06
5.0100e+03,1.8708e-06
5.0200e+03,1.8774e-06
5.0300e+03,1.8857e-06
5.0400e+03,1.8958e-06
5.0500e+03,1.9075e-06
5.0600e+03,1.9207e-06
5.0700e+03,1.9351e-06
5.0800e+03,1.9504e-06
5.0900e+03,1.9662e-06
5.1000e+03,1.9822e-06
5.1100e+03,1.9979e-06
5.1200e+03,2.0127e-06
5.1300e+03,2.0261e-06
5.1400e+03,2.0376e-06
5.1500e+03,2.0467e-06
5.1600e+03,2.0531e-06
5.1700e+03,2.0566e-06
5.1800e+03,2.0571e-06
5.1900e+03,2.0547e-06
5.2000e+03,2.0496e-06
5.2100e+03,2.0420e-06
5.2200e+03,2.0326e-06
5.2300e+03,2.0217e-06
5.2400e+03,2.0101e-06
5.2500e+03,1.9981e-06
5.2600e+03,1.9862e-06
5.2700e+03,1.9746e-06
5.2800e+03,1.9636e-06
5.2900e+03,1.9535e-06
5.3000e+03,1.9445e-06
5.3100e+03,1.9367e-06
5.3200e+03,1.9302e-06
5.3300e+03,1.9251e-06
5.3400e+03,1.9213e-06
5.3500e+03,1.9188e-06
5.3600e+03,1.9174e-06
5.3700e+03,1.9171e-06
5.3800e+03,1.9178e-06
5.3900e+03,1.9193e-06
5.4000e+03,1.9215e-06
5.4100e+03,1.9242e-06
5.4200e+03,1.9274e-06
5.4300e+03,1.9308e-06
5.4400e+03,1.9345e-06
5.4500e+03,1.9383e-06
5.4600e+03,1.9421e-06
5.4700e+03,1.9458e-06
5.4800e+03,1.9493e-06
5.4900e+03,1.9525e-06
5.5000e+03,1.9554e-06
5.5100e+03,1.9579e-06
5.5200e+03,1.9601e-06
5.5300e+03,1.9619e-06
5.5400e+03,1.9634e-06
5.5500e+03,1.9645e-06
5.5600e+03,1.9654e-06
5.5700e+03,1.9660e-06
5.5800e+03,1.9665e-06
5.5900e+03,1.9668e-06
5.6000e+03,1.9670e-06
5.6100e+03,1.9671e-06
5.6200e+03,1.9671e-06
5.6300e+03,1.9671e-06
5.6400e+03,1.9671e-06
5.6500e+03,1.9671e-06
5.6600e+03,1.9670e-06
5.6700e+03,1.9670e-06
5.6800e+03,1.9669e-06
5.6900e+03,1.9669e-06
5.7000e+03,1.9668e-06
5.7100e+03,1.9668e-06
5.7200e+03,1.9669e-06
5.7300e+03,1.9670e-06
5.7400e+03,1.9674e-06
5.7500e+03,1.9680e-06
5.7600e+03,1.9689e-06
5.7700e+03,1.9703e-06
5.7800e+03,1.9720e-06
5.7900e+03,1.9741e-06
5.8000e+03,1.9765e-06
5.8100e+03,1.9789e-06
5.8200e+03,1.9813e-06
5.8300e+03,1.9834e-06
5.8400e+03,1.9853e-06
5.8500e+03,1.9869e-06
5.8600e+03,1.9884e-06
5.8700e+03,1.9897e-06
5.8800e+03,1.9910e-06
5.8900e+03,1.9923e-06
5.9000e+03,1.9934e-06
5.9100e+03,1.9943e-06
5.9200e+03,1.9949e-06
5.9300e+03,1.9950e-06
5.9400e+03,1.9946e-06
5.9500e+03,1.9936e-06
5.9600e+03,1.9920e-06
5.9700e+03,1.9897e-06
5.9800e+03,1.9867e-06
5.9900e+03,1.9831e-06
6.0000e+03,1.9786e-06
6.0100e+03,1.9732e-06
6.0200e+03,1.9667e-06
6.0300e+03,1.9589e-06
6.0400e+03,1.9496e-06
6.0500e+03,1.9390e-06
6.0600e+03,1.9270e-06
6.0700e+03,1.9137e-06
6.0800e+03,1.8993e-06
6.0900e+03,1.8841e-06
6.1000e+03,1.8681e-06
6.1100e+03,1.8514e-06
6.1200e+03,1.8342e-06
6.1300e+03,1.8163e-06
6.1400e+03,1.7978e-06
6.1500e+03,1.7787e-06
6.1600e+03,1.7590e-06
6.1700e+03,1.7391e-06
6.1800e+03,1.7191e-06
6.1900e+03,1.6996e-06
6.2000e+03,1.6807e-06
6.2100e+03,1.6629e-06
6.2200e+03,1.6463e-06
6.2300e+03,1.6311e-06
6.2400e+03,1.6173e-06
6.2500e+03,1.6049e-06
6.2600e+03,1.5938e-06
6.2700e+03,1.5841e-06
6.2800e+03,1.5757e-06
6.2900e+03,1.5687e-06
6.3000e+03,1.5632e-06
6.3100e+03,1.5592e-06
6.3200e+03,1.5565e-06
6.3300e+03,1.5550e-06
6.3400e+03,1.5545e-06
6.3500e+03,1.5548e-06
6.3600e+03,1.5555e-06
6.3700e+03,1.5563e-06
6.3800e+03,1.5572e-06
6.3900e+03,1.5580e-06
6.4000e+03,1.5587e-06
6.4100e+03,1.5595e-06
6.4200e+03,1.5604e-06
6.4300e+03,1.5617e-06
6.4400e+03,1.5635e-06
6.4500e+03,1.5660e-06
6.4600e+03,1.5692e-06
6.4700e+03,1.5732e-06
6.4800e+03,1.5779e-06
6.4900e+03,1.5832e-06
6.5000e+03,1.5890e-06
6.5100e+03,1.5953e-06
6.5200e+03,1.6019e-06
6.5300e+03,1.6088e-06
6.5400e+03,1.6159e-06
6.5500e+03,1.6230e-06
6.5600e+03,1.6299e-06
6.5700e+03,1.6364e-06
6.5800e+03,1.6424e-06
6.5900e+03,1.6476e-06
6.6000e+03,1.6519e-06
6.6100e+03,1.6555e-06
6.6200e+03,1.6582e-06
6.6300e+03,1.6601e-06
6.6400e+03,1.6614e-06
6.6500e+03,1.6621e-06
6.6600e+03,1.6624e-06
6.6700e+03,1.6625e-06
6.6800e+03,1.6624e-06
6.6900e+03,1.6624e-06
6.7000e+03,1.6625e-06
6.7100e+03,1.6628e-06
6.7200e+03,1.6631e-06
6.7300e+03,1.6634e-06
6.7400e+03,1.6637e-06
6.7500e+03,1.6638e-06
6.7600e+03,1.6639e-06
6.7700e+03,1.6639e-06
6.7800e+03,1.6640e-06
6.7900e+03,1.6643e-06
6.8000e+03,1.6648e-06
6.8100e+03,1.6655e-06
6.8200e+03,1.6664e-06
6.8300e+03,1.6673e-06
6.8400e+03,1.6683e-06
6.8500e+03,1.6691e-06
6.8600e+03,1.6699e-06
6.8700e+03,1.6708e-06
6.8800e+03,1.6717e-06
6.8900e+03,1.6730e-06
6.9000e+03,1.6746e-06
6.9100e+03,1.6766e-06
6.9200e+03,1.6791e-06
6.9300e+03,1.6818e-06
6.9400e+03,1.6849e-06
6.9500e+03,1.6882e-06
6.9600e+03,1.6916e-06
6.9700e+03,1.6952e-06
6.9800e+03,1.6989e-06
6.9900e+03,1.7027e-06
7.0000e+03,1.7068e-06
7.0100e+03,1.7110e-06
7.0200e+03,1.7154e-06
7.0300e+03,1.7199e-06
7.0400e+03,1.7244e-06
7.0500e+03,1.7289e-06
7.0600e+03,1.7331e-06
7.0700e+03,1.7373e-06
7.0800e+03,1.7413e-06
7.0900e+03,1.7454e-06
7.1000e+03,1.7497e-06
7.1100e+03,1.7544e-06
7.1200e+03,1.7596e-06
7.1300e+03,1.7654e-06
7.1400e+03,1.7719e-06
7.1500e+03,1.7792e-06
7.1600e+03,1.7871e-06
7.1700e+03,1.7958e-06
7.1800e+03,1.8051e-06
7.1900e+03,1.8150e-06
7.2000e+03,1.8254e-06
7.2100e+03,1.8359e-06
7.2200e+03,1.8462e-06
7.2300e+03,1.8557e-06
7.2400e+03,1.8639e-06
7.2500e+03,1.8706e-06
7.2600e+03,1.8757e-06
7.2700e+03,1.8793e-06
7.2800e+03,1.8819e-06
7.2900e+03,1.8841e-06
7.3000e+03,1.8863e-06
7.3100e+03,1.8892e-06
7.3200e+03,1.8929e-06
7.3300e+03,1.8976e-06
7.3400e+03,1.9030e-06
7.3500e+03,1.9088e-06
7.3600e+03,1.9147e-06
7.3700e+03,1.9204e-06
7.3800e+03,1.9256e-06
7.3900e+03,1.9303e-06
7.4000e+03,1.9343e-06
7.4100e+03,1.9379e-06
7.4200e+03,1.9412e-06
7.4300e+03,1.9447e-06
7.4400e+03,1.9486e-06
7.4500e+03,1.9533e-06
7.4600e+03,1.9589e-06
7.4700e+03,1.9654e-06
7.4800e+03,1.9728e-06
7.4900e+03,1.9809e-06
7.5000e+03,1.9895e-06
7.5100e+03,1.9983e-06
7.5200e+03,2.0071e-06
7.5300e+03,2.0156e-06
7.5400e+03,2.0236e-06
7.5500e+03,2.0309e-06
7.5600e+03,2.0373e-06
7.5700e+03,2.0427e-06
7.5800e+03,2.0470e-06
7.5900e+03,2.0503e-06
7.6000e+03,2.0528e-06
7.6100e+03,2.0545e-06
7.6200e+03,2.0557e-06
7.6300e+03,2.0565e-06
7.6400e+03,2.0571e-06
7.6500e+03,2.0574e-06
7.6600e+03,2.0577e-06
7.6700e+03,2.0579e-06
7.6800e+03,2.0582e-06
7.6900e+03,2.0584e-06
7.7000e+03,2.0586e-06
7.7100e+03,2.0588e-06
7.7200e+03,2.0590e-06
7.7300e+03,2.0592e-06
7.7400e+03,2.0594e-06
7.7500e+03,2.0595e-06
7.7600e+03,2.0597e-06
7.7700e+03,2.0601e-06
7.7800e+03,2.0605e-06
7.7900e+03,2.0611e-06
7.8000e+03,2.0619e-06
7.8100e+03,2.0628e-06
7.8200e+03,2.0640e-06
7.8300e+03,2.0655e-06
7.8400e+03,2.0675e-06
7.8500e+03,2.0699e-06
7.8600e+03,2.0729e-06
7.8700e+03,2.0766e-06
7.8800e+03,2.0809e-06
7.8900e+03,2.0858e-06
7.9000e+03,2.0914e-06
7.9100e+03,2.0975e-06
7.9200e+03,2.1042e-06
7.9300e+03,2.1114e-06
7.9400e+03,2.1191e-06
7.9500e+03,2.1271e-06
7.9600e+03,2.1353e-06
7.9700e+03,2.1434e-06
7.9800e+03,2.1513e-06
7.9900e+03,2.1588e-06
8.0000e+03,2.1656e-06
8.0100e+03,2.1717e-06
8.0200e+03,2.1770e-06
8.0300e+03,2.1814e-06
8.0400e+03,2.1849e-06
8.0500e+03,2.1874e-06
8.0600e+03,2.1888e-06
8.0700e+03,2.1890e-06
8.0800e+03,2.1880e-06
8.0900e+03,2.1857e-06
8.1000e+03,2.1821e-06
8.1100e+03,2.1775e-06
8.1200e+03,2.1720e-06
8.1300e+03,2.1661e-06
8.1400e+03,2.1603e-06
8.1500e+03,2.1548e-06
8.1600e+03,2.1501e-06
8.1700e+03,2.1463e-06
8.1800e+03,2.1438e-06
8.1900e+03,2.1424e-06
8.2000e+03,2.1424e-06
8.2100e+03,2.1435e-06
8.2200e+03,2.1457e-06
8.2300e+03,2.1487e-06
8.2400e+03,2.1523e-06
8.2500e+03,2.1560e-06
8.2600e+03,2.1596e-06
8.2700e+03,2.1626e-06
8.2800e+03,2.1650e-06
8.2900e+03,2.1664e-06
8.3000e+03,2.1668e-06
8.3100e+03,2.1663e-06
8.3200e+03,2.1651e-06
8.3300e+03,2.1633e-06
8.3400e+03,2.1613e-06
8.3500e+03,2.1592e-06
8.3600e+03,2.1573e-06
8.3700e+03,2.1556e-06
8.3800e+03,2.1541e-06
8.3900e+03,2.1528e-06
8.4000e+03,2.1516e-06
8.4100e+03,2.1503e-06
8.4200e+03,2.1490e-06
8.4300e+03,2.1477e-06
8.4400e+03,2.1463e-06
8.4500e+03,2.1450e-06
8.4600e+03,2.1438e-06
8.4700e+03,2.1429e-06
8.4800e+03,2.1423e-06
8.4900e+03,2.1418e-06
8.5000e+03,2.1413e-06
8.5100e+03,2.1405e-06
8.5200e+03,2.1394e-06
8.5300e+03,2.1376e-06
8.5400e+03,2.1350e-06
8.5500e+03,2.1317e-06
8.5600e+03,2.1277e-06
8.5700e+03,2.1232e-06
8.5800e+03,2.1184e-06
8.5900e+03,2.1136e-06
8.6000e+03,2.1090e-06
8.6100e+03,2.1048e-06
8.6200e+03,2.1011e-06
8.6300e+03,2.0981e-06
8.6400e+03,2.0959e-06
8.6500e+03,2.0944e-06
8.6600e+03,2.0937e-06
8.6700e+03,2.0935e-06
8.6800e+03,2.0937e-06
8.6900e+03,2.0940e-06
8.7000e+03,2.0945e-06
8.7100e+03,2.0948e-06
8.7200e+03,2.0950e-06
8.7300e+03,2.0950e-06
8.7400e+03,2.0948e-06
8.7500e+03,2.0946e-06
8.7600e+03,2.0943e-06
8.7700e+03,2.0940e-06
8.7800e+03,2.0935e-06
8.7900e+03,2.0926e-06
8.8000e+03,2.0911e-06
8.8100e+03,2.0888e-06
8.8200e+03,2.0855e-06
8.8300e+03,2.0812e-06
8.8400e+03,2.0759e-06
8.8500e+03,2.0698e-06
8.8600e+03,2.0633e-06
8.8700e+03,2.0565e-06
8.8800e+03,2.0500e-06
8.8900e+03,2.0439e-06
8.9000e+03,2.0384e-06
8.9100e+03,2.0338e-06
8.9200e+03,2.0301e-06
8.9300e+03,2.0273e-06
8.9400e+03,2.0255e-06
8.9500e+03,2.0247e-06
8.9600e+03,2.0246e-06
8.9700e+03,2.0250e-06
8.9800e+03,2.0257e-06
8.9900e+03,2.0263e-06
9.0000e+03,2.0266e-06
9.0100e+03,2.0263e-06
9.0200e+03,2.0254e-06
9.0300e+03,2.0239e-06
9.0400e+03,2.0218e-06
9.0500e+03,2.0194e-06
9.0600e+03,2.0167e-06
9.0700e+03,2.0138e-06
