# Time , Side-Flux
0.0000e+00,0.0000e+00
1.0000e+01,5.5038e-06
2.0000e+01,1.0106e-05
3.0000e+01,1.3421e-05
4.0000e+01,1.5575e-05
5.0000e+01,1.6898e-05
6.0000e+01,1.7698e-05
7.0000e+01,1.8188e-05
8.0000e+01,1.8499e-05
9.0000e+01,1.8703e-05
1.0000e+02,1.8842e-05
1.1000e+02,1.8939e-05
1.2000e+02,1.9009e-05
1.3000e+02,1.9061e-05
1.4000e+02,1.9100e-05
1.5000e+02,1.9130e-05
1.6000e+02,1.9153e-05
1.7000e+02,1.9172e-05
1.8000e+02,1.9186e-05
1.9000e+02,1.9198e-05
2.0000e+02,1.9208e-05
2.1000e+02,1.9217e-05
2.2000e+02,1.9224e-05
2.3000e+02,1.9229e-05
2.4000e+02,1.9234e-05
2.5000e+02,1.9237e-05
2.6000e+02,1.9239e-05
2.7000e+02,1.9241e-05
2.8000e+02,1.9243e-05
2.9000e+02,1.9245e-05
3.0000e+02,1.9247e-05
3.1000e+02,1.9249e-05
3.2000e+02,1.9251e-05
3.3000e+02,1.9254e-05
3.4000e+02,1.9257e-05
3.5000e+02,1.9258e-05
3.6000e+02,1.9257e-05
3.7000e+02,1.9257e-05
3.8000e+02,1.9258e-05
3.9000e+02,1.9260e-05
4.0000e+02,1.9261e-05
4.1000e+02,1.9259e-05
4.2000e+02,1.9254e-05
4.3000e+02,1.9248e-05
4.4000e+02,1.9244e-05
4.5000e+02,1.9241e-05
4.6000e+02,1.9241e-05
4.7000e+02,1.9241e-05
4.8000e+02,1.9241e-05
4.9000e+02,1.9241e-05
5.0000e+02,1.9241e-05
5.1000e+02,1.9241e-05
5.2000e+02,1.9241e-05
5.3000e+02,1.9241e-05
5.4000e+02,1.9241e-05
5.5000e+02,1.9241e-05
5.6000e+02,1.9241e-05
5.7000e+02,1.9241e-05
5.8000e+02,1.9240e-05
5.9000e+02,1.9239e-05
6.0000e+02,1.9237e-05
6.1000e+02,1.9234e-05
6.2000e+02,1.9230e-05
6.3000e+02,1.9226e-05
6.4000e+02,1.9221e-05
6.5000e+02,1.9212e-05
6.6000e+02,1.9199e-05
6.7000e+02,1.9181e-05
6.8000e+02,1.9163e-05
6.9000e+02,1.9151e-05
7.0000e+02,1.9143e-05
7.1000e+02,1.9138e-05
7.2000e+02,1.9132e-05
7.3000e+02,1.9124e-05
7.4000e+02,1.9118e-05
7.5000e+02,1.9115e-05
7.6000e+02,1.9117e-05
7.7000e+02,1.9121e-05
7.8000e+02,1.9125e-05
7.9000e+02,1.9126e-05
8.0000e+02,1.9125e-05
8.1000e+02,1.9121e-05
8.2000e+02,1.9116e-05
8.3000e+02,1.9112e-05
8.4000e+02,1.9111e-05
8.5000e+02,1.9112e-05
8.6000e+02,1.9114e-05
8.7000e+02,1.9117e-05
8.8000e+02,1.9118e-05
8.9000e+02,1.9118e-05
9.0000e+02,1.9116e-05
9.1000e+02,1.9111e-05
9.2000e+02,1.9099e-05
9.3000e+02,1.9081e-05
9.4000e+02,1.9060e-05
9.5000e+02,1.9039e-05
9.6000e+02,1.9020e-05
9.7000e+02,1.9003e-05
9.8000e+02,1.8990e-05
9.9000e+02,1.8982e-05
1.0000e+03,1.8978e-05
1.0100e+03,1.8976e-05
1.0200e+03,1.8971e-05
1.0300e+03,1.8958e-05
1.0400e+03,1.8936e-05
1.0500e+03,1.8911e-05
1.0600e+03,1.8888e-05
1.0700e+03,1.8868e-05
1.0800e+03,1.8847e-05
1.0900e+03,1.8827e-05
1.1000e+03,1.8808e-05
1.1100e+03,1.8795e-05
1.1200e+03,1.8791e-05
1.1300e+03,1.8795e-05
1.1400e+03,1.8802e-05
1.1500e+03,1.8808e-05
1.1600e+03,1.8814e-05
1.1700e+03,1.8817e-05
1.1800e+03,1.8818e-05
1.1900e+03,1.8818e-05
1.2000e+03,1.8816e-05
1.2100e+03,1.8811e-05
1.2200e+03,1.8804e-05
1.2300e+03,1.8795e-05
1.2400e+03,1.8785e-05
1.2500e+03,1.8777e-05
1.2600e+03,1.8772e-05
1.2700e+03,1.8772e-05
1.2800e+03,1.8775e-05
1.2900e+03,1.8779e-05
1.3000e+03,1.8781e-05
1.3100e+03,1.8782e-05
1.3200e+03,1.8781e-05
1.3300e+03,1.8778e-05
1.3400e+03,1.8773e-05
1.3500e+03,1.8765e-05
1.3600e+03,1.8755e-05
1.3700e+03,1.8745e-05
1.3800e+03,1.8737e-05
1.3900e+03,1.8729e-05
1.4000e+03,1.8723e-05
1.4100e+03,1.8717e-05
1.4200e+03,1.8713e-05
1.4300e+03,1.8710e-05
1.4400e+03,1.8708e-05
1.4500e+03,1.8707e-05
1.4600e+03,1.8707e-05
1.4700e+03,1.8707e-05
1.4800e+03,1.8707e-05
1.4900e+03,1.8707e-05
1.5000e+03,1.8707e-05
1.5100e+03,1.8707e-05
1.5200e+03,1.8707e-05
1.5300e+03,1.8707e-05
1.5400e+03,1.8706e-05
1.5500e+03,1.8706e-05
1.5600e+03,1.8706e-05
1.5700e+03,1.8705e-05
1.5800e+03,1.8705e-05
1.5900e+03,1.8705e-05
1.6000e+03,1.8704e-05
1.6100e+03,1.8701e-05
1.6200e+03,1.8696e-05
1.6300e+03,1.8689e-05
1.6400e+03,1.8681e-05
1.6500e+03,1.8674e-05
1.6600e+03,1.8669e-05
1.6700e+03,1.8665e-05
1.6800e+03,1.8664e-05
1.6900e+03,1.8664e-05
1.7000e+03,1.8663e-05
1.7100e+03,1.8659e-05
1.7200e+03,1.8652e-05
1.7300e+03,1.8645e-05
1.7400e+03,1.8638e-05
1.7500e+03,1.8633e-05
1.7600e+03,1.8628e-05
1.7700e+03,1.8626e-05
1.7800e+03,1.8626e-05
1.7900e+03,1.8628e-05
1.8000e+03,1.8629e-05
1.8100e+03,1.8630e-05
1.8200e+03,1.8628e-05
1.8300e+03,1.8624e-05
1.8400e+03,1.8618e-05
1.8500e+03,1.8610e-05
1.8600e+03,1.8604e-05
1.8700e+03,1.8599e-05
1.8800e+03,1.8598e-05
1.8900e+03,1.8599e-05
1.9000e+03,1.8599e-05
1.9100e+03,1.8597e-05
1.9200e+03,1.8593e-05
1.9300e+03,1.8588e-05
1.9400e+03,1.8580e-05
1.9500e+03,1.8571e-05
1.9600e+03,1.8561e-05
1.9700e+03,1.8554e-05
1.9800e+03,1.8548e-05
1.9900e+03,1.8541e-05
2.0000e+03,1.8533e-05
2.0100e+03,1.8523e-05
2.0200e+03,1.8512e-05
2.0300e+03,1.8504e-05
2.0400e+03,1.8502e-05
2.0500e+03,1.8504e-05
2.0600e+03,1.8505e-05
2.0700e+03,1.8502e-05
2.0800e+03,1.8497e-05
2.0900e+03,1.8495e-05
2.1000e+03,1.8493e-05
2.1100e+03,1.8488e-05
2.1200e+03,1.8482e-05
2.1300e+03,1.8478e-05
2.1400e+03,1.8478e-05
2.1500e+03,1.8474e-05
2.1600e+03,1.8463e-05
2.1700e+03,1.8448e-05
2.1800e+03,1.8435e-05
2.1900e+03,1.8428e-05
2.2000e+03,1.8422e-05
2.2100e+03,1.8416e-05
2.2200e+03,1.8408e-05
2.2300e+03,1.8401e-05
2.2400e+03,1.8399e-05
2.2500e+03,1.8403e-05
2.2600e+03,1.8409e-05
2.2700e+03,1.8412e-05
2.2800e+03,1.8410e-05
2.2900e+03,1.8407e-05
2.3000e+03,1.8405e-05
2.3100e+03,1.8403e-05
2.3200e+03,1.8401e-05
2.3300e+03,1.8398e-05
2.3400e+03,1.8394e-05
2.3500e+03,1.8391e-05
2.3600e+03,1.8392e-05
2.3700e+03,1.8394e-05
2.3800e+03,1.8395e-05
2.3900e+03,1.8393e-05
2.4000e+03,1.8389e-05
2.4100e+03,1.8388e-05
2.4200e+03,1.8389e-05
2.4300e+03,1.8390e-05
2.4400e+03,1.8389e-05
2.4500e+03,1.8386e-05
2.4600e+03,1.8380e-05
2.4700e+03,1.8375e-05
2.4800e+03,1.8369e-05
2.4900e+03,1.8365e-05
2.5000e+03,1.8360e-05
2.5100e+03,1.8357e-05
2.5200e+03,1.8355e-05
2.5300e+03,1.8355e-05
2.5400e+03,1.8354e-05
2.5500e+03,1.8354e-05
2.5600e+03,1.8352e-05
2.5700e+03,1.8351e-05
2.5800e+03,1.8349e-05
2.5900e+03,1.8348e-05
2.6000e+03,1.8346e-05
2.6100e+03,1.8345e-05
2.6200e+03,1.8346e-05
2.6300e+03,1.8347e-05
2.6400e+03,1.8349e-05
2.6500e+03,1.8349e-05
2.6600e+03,1.8344e-05
2.6700e+03,1.8333e-05
2.6800e+03,1.8320e-05
2.6900e+03,1.8309e-05
2.7000e+03,1.8309e-05
2.7100e+03,1.8322e-05
2.7200e+03,1.8341e-05
2.7300e+03,1.8355e-05
2.7400e+03,1.8355e-05
2.7500e+03,1.8343e-05
2.7600e+03,1.8324e-05
2.7700e+03,1.8305e-05
2.7800e+03,1.8290e-05
2.7900e+03,1.8279e-05
2.8000e+03,1.8269e-05
2.8100e+03,1.8260e-05
2.8200e+03,1.8251e-05
2.8300e+03,1.8243e-05
2.8400e+03,1.8237e-05
2.8500e+03,1.8233e-05
2.8600e+03,1.8235e-05
2.8700e+03,1.8246e-05
2.8800e+03,1.8264e-05
2.8900e+03,1.8282e-05
2.9000e+03,1.8288e-05
2.9100e+03,1.8271e-05
2.9200e+03,1.8227e-05
2.9300e+03,1.8164e-05
2.9400e+03,1.8097e-05
2.9500e+03,1.8039e-05
2.9600e+03,1.8004e-05
2.9700e+03,1.7996e-05
2.9800e+03,1.8011e-05
2.9900e+03,1.8042e-05
3.0000e+03,1.8078e-05
3.0100e+03,1.8107e-05
3.0200e+03,1.8122e-05
3.0300e+03,1.8119e-05
3.0400e+03,1.8101e-05
3.0500e+03,1.8077e-05
3.0600e+03,1.8059e-05
3.0700e+03,1.8063e-05
3.0800e+03,1.8099e-05
3.0900e+03,1.8167e-05
3.1000e+03,1.8253e-05
3.1100e+03,1.8341e-05
3.1200e+03,1.8414e-05
3.1300e+03,1.8465e-05
3.1400e+03,1.8491e-05
3.1500e+03,1.8495e-05
3.1600e+03,1.8477e-05
3.1700e+03,1.8438e-05
3.1800e+03,1.8382e-05
3.1900e+03,1.8320e-05
3.2000e+03,1.8261e-05
3.2100e+03,1.8214e-05
3.2200e+03,1.8182e-05
3.2300e+03,1.8167e-05
3.2400e+03,1.8168e-05
3.2500e+03,1.8185e-05
3.2600e+03,1.8213e-05
3.2700e+03,1.8244e-05
3.2800e+03,1.8272e-05
3.2900e+03,1.8291e-05
3.3000e+03,1.8298e-05
3.3100e+03,1.8293e-05
3.3200e+03,1.8276e-05
3.3300e+03,1.8253e-05
3.3400e+03,1.8228e-05
3.3500e+03,1.8205e-05
3.3600e+03,1.8184e-05
3.3700e+03,1.8168e-05
3.3800e+03,1.8153e-05
3.3900e+03,1.8141e-05
3.4000e+03,1.8130e-05
3.4100e+03,1.8118e-05
3.4200e+03,1.8105e-05
3.4300e+03,1.8088e-05
3.4400e+03,1.8070e-05
3.4500e+03,1.8054e-05
3.4600e+03,1.8046e-05
3.4700e+03,1.8050e-05
3.4800e+03,1.8066e-05
3.4900e+03,1.8091e-05
3.5000e+03,1.8118e-05
3.5100e+03,1.8146e-05
3.5200e+03,1.8171e-05
3.5300e+03,1.8193e-05
3.5400e+03,1.8210e-05
3.5500e+03,1.8221e-05
3.5600e+03,1.8226e-05
3.5700e+03,1.8228e-05
3.5800e+03,1.8228e-05
3.5900e+03,1.8226e-05
3.6000e+03,1.8225e-05
3.6100e+03,1.8223e-05
3.6200e+03,1.8222e-05
3.6300e+03,1.8221e-05
3.6400e+03,1.8221e-05
3.6500e+03,1.8222e-05
3.6600e+03,1.8225e-05
3.6700e+03,1.8230e-05
3.6800e+03,1.8238e-05
3.6900e+03,1.8249e-05
3.7000e+03,1.8262e-05
3.7100e+03,1.8272e-05
3.7200e+03,1.8272e-05
3.7300e+03,1.8255e-05
3.7400e+03,1.8219e-05
3.7500e+03,1.8166e-05
3.7600e+03,1.8104e-05
3.7700e+03,1.8045e-05
3.7800e+03,1.7998e-05
3.7900e+03,1.7970e-05
3.8000e+03,1.7960e-05
3.8100e+03,1.7964e-05
3.8200e+03,1.7978e-05
3.8300e+03,1.7997e-05
3.8400e+03,1.8019e-05
3.8500e+03,1.8041e-05
3.8600e+03,1.8065e-05
3.8700e+03,1.8091e-05
3.8800e+03,1.8117e-05
3.8900e+03,1.8134e-05
3.9000e+03,1.8133e-05
3.9100e+03,1.8107e-05
3.9200e+03,1.8056e-05
3.9300e+03,1.7984e-05
3.9400e+03,1.7896e-05
3.9500e+03,1.7798e-05
3.9600e+03,1.7696e-05
3.9700e+03,1.7591e-05
3.9800e+03,1.7492e-05
3.9900e+03,1.7404e-05
4.0000e+03,1.7331e-05
4.0100e+03,1.7268e-05
4.0200e+03,1.7213e-05
4.0300e+03,1.7165e-05
4.0400e+03,1.7132e-05
4.0500e+03,1.7118e-05
4.0600e+03,1.7121e-05
4.0700e+03,1.7142e-05
4.0800e+03,1.7178e-05
4.0900e+03,1.7228e-05
4.1000e+03,1.7281e-05
4.1100e+03,1.7325e-05
4.1200e+03,1.7355e-05
4.1300e+03,1.7374e-05
4.1400e+03,1.7387e-05
4.1500e+03,1.7393e-05
4.1600e+03,1.7387e-05
4.1700e+03,1.7366e-05
4.1800e+03,1.7327e-05
4.1900e+03,1.7274e-05
4.2000e+03,1.7211e-05
4.2100e+03,1.7146e-05
4.2200e+03,1.7086e-05
4.2300e+03,1.7034e-05
4.2400e+03,1.6992e-05
4.2500e+03,1.6961e-05
4.2600e+03,1.6940e-05
4.2700e+03,1.6927e-05
4.2800e+03,1.6920e-05
4.2900e+03,1.6916e-05
4.3000e+03,1.6914e-05
4.3100e+03,1.6914e-05
4.3200e+03,1.6916e-05
4.3300e+03,1.6919e-05
4.3400e+03,1.6925e-05
4.3500e+03,1.6933e-05
4.3600e+03,1.6942e-05
4.3700e+03,1.6949e-05
4.3800e+03,1.6953e-05
4.3900e+03,1.6954e-05
4.4000e+03,1.6950e-05
4.4100e+03,1.6942e-05
4.4200e+03,1.6931e-05
4.4300e+03,1.6916e-05
4.4400e+03,1.6897e-05
4.4500e+03,1.6878e-05
4.4600e+03,1.6861e-05
4.4700e+03,1.6848e-05
4.4800e+03,1.6838e-05
4.4900e+03,1.6829e-05
4.5000e+03,1.6818e-05
4.5100e+03,1.6808e-05
4.5200e+03,1.6801e-05
4.5300e+03,1.6798e-05
4.5400e+03,1.6798e-05
4.5500e+03,1.6800e-05
4.5600e+03,1.6801e-05
4.5700e+03,1.6801e-05
4.5800e+03,1.6799e-05
4.5900e+03,1.6797e-05
4.6000e+03,1.6795e-05
4.6100e+03,1.6794e-05
4.6200e+03,1.6794e-05
4.6300e+03,1.6796e-05
4.6400e+03,1.6798e-05
4.6500e+03,1.6798e-05
4.6600e+03,1.6797e-05
4.6700e+03,1.6795e-05
4.6800e+03,1.6792e-05
4.6900e+03,1.6786e-05
4.7000e+03,1.6775e-05
4.7100e+03,1.6755e-05
4.7200e+03,1.6724e-05
4.7300e+03,1.6684e-05
4.7400e+03,1.6637e-05
4.7500e+03,1.6587e-05
4.7600e+03,1.6534e-05
4.7700e+03,1.6471e-05
4.7800e+03,1.6391e-05
4.7900e+03,1.6291e-05
4.8000e+03,1.6176e-05
4.8100e+03,1.6057e-05
4.8200e+03,1.5947e-05
4.8300e+03,1.5855e-05
4.8400e+03,1.5784e-05
4.8500e+03,1.5727e-05
4.8600e+03,1.5676e-05
4.8700e+03,1.5630e-05
4.8800e+03,1.5593e-05
4.8900e+03,1.5566e-05
4.9000e+03,1.5548e-05
4.9100e+03,1.5532e-05
4.9200e+03,1.5509e-05
4.9300e+03,1.5474e-05
4.9400e+03,1.5428e-05
4.9500e+03,1.5381e-05
4.9600e+03,1.5341e-05
4.9700e+03,1.5315e-05
4.9800e+03,1.5300e-05
4.9900e+03,1.5295e-05
5.0000e+03,1.5297e-05
5.0100e+03,1.5308e-05
5.0200e+03,1.5334e-05
5.0300e+03,1.5381e-05
5.0400e+03,1.5447e-05
5.0500e+03,1.5522e-05
5.0600e+03,1.5593e-05
5.0700e+03,1.5652e-05
5.0800e+03,1.5704e-05
5.0900e+03,1.5764e-05
5.1000e+03,1.5841e-05
5.1100e+03,1.5940e-05
5.1200e+03,1.6054e-05
5.1300e+03,1.6179e-05
5.1400e+03,1.6310e-05
5.1500e+03,1.6442e-05
5.1600e+03,1.6568e-05
5.1700e+03,1.6679e-05
5.1800e+03,1.6768e-05
5.1900e+03,1.6827e-05
5.2000e+03,1.6851e-05
5.2100e+03,1.6841e-05
5.2200e+03,1.6801e-05
5.2300e+03,1.6740e-05
5.2400e+03,1.6669e-05
5.2500e+03,1.6591e-05
5.2600e+03,1.6507e-05
5.2700e+03,1.6417e-05
5.2800e+03,1.6320e-05
5.2900e+03,1.6217e-05
5.3000e+03,1.6111e-05
5.3100e+03,1.6016e-05
5.3200e+03,1.5939e-05
5.3300e+03,1.5884e-05
5.3400e+03,1.5847e-05
5.3500e+03,1.5822e-05
5.3600e+03,1.5808e-05
5.3700e+03,1.5802e-05
5.3800e+03,1.5800e-05
5.3900e+03,1.5798e-05
5.4000e+03,1.5796e-05
5.4100e+03,1.5796e-05
5.4200e+03,1.5801e-05
5.4300e+03,1.5812e-05
5.4400e+03,1.5826e-05
5.4500e+03,1.5843e-05
5.4600e+03,1.5861e-05
5.4700e+03,1.5878e-05
5.4800e+03,1.5894e-05
5.4900e+03,1.5910e-05
5.5000e+03,1.5927e-05
5.5100e+03,1.5947e-05
5.5200e+03,1.5970e-05
5.5300e+03,1.5997e-05
5.5400e+03,1.6027e-05
5.5500e+03,1.6058e-05
5.5600e+03,1.6088e-05
5.5700e+03,1.6115e-05
5.5800e+03,1.6136e-05
5.5900e+03,1.6152e-05
5.6000e+03,1.6163e-05
5.6100e+03,1.6170e-05
5.6200e+03,1.6174e-05
5.6300e+03,1.6175e-05
5.6400e+03,1.6173e-05
5.6500e+03,1.6170e-05
5.6600e+03,1.6165e-05
5.6700e+03,1.6158e-05
5.6800e+03,1.6150e-05
5.6900e+03,1.6141e-05
5.7000e+03,1.6133e-05
5.7100e+03,1.6126e-05
5.7200e+03,1.6119e-05
5.7300e+03,1.6114e-05
5.7400e+03,1.6110e-05
5.7500e+03,1.6110e-05
5.7600e+03,1.6115e-05
5.7700e+03,1.6127e-05
5.7800e+03,1.6148e-05
5.7900e+03,1.6179e-05
5.8000e+03,1.6212e-05
5.8100e+03,1.6237e-05
5.8200e+03,1.6247e-05
5.8300e+03,1.6238e-05
5.8400e+03,1.6215e-05
5.8500e+03,1.6188e-05
5.8600e+03,1.6168e-05
5.8700e+03,1.6160e-05
5.8800e+03,1.6167e-05
5.8900e+03,1.6185e-05
5.9000e+03,1.6206e-05
5.9100e+03,1.6229e-05
5.9200e+03,1.6252e-05
5.9300e+03,1.6274e-05
5.9400e+03,1.6295e-05
5.9500e+03,1.6310e-05
5.9600e+03,1.6317e-05
5.9700e+03,1.6318e-05
5.9800e+03,1.6315e-05
5.9900e+03,1.6311e-05
6.0000e+03,1.6306e-05
6.0100e+03,1.6295e-05
6.0200e+03,1.6272e-05
6.0300e+03,1.6232e-05
6.0400e+03,1.6170e-05
6.0500e+03,1.6089e-05
6.0600e+03,1.5990e-05
6.0700e+03,1.5878e-05
6.0800e+03,1.5762e-05
6.0900e+03,1.5647e-05
6.1000e+03,1.5537e-05
6.1100e+03,1.5433e-05
6.1200e+03,1.5338e-05
6.1300e+03,1.5246e-05
6.1400e+03,1.5143e-05
6.1500e+03,1.5012e-05
6.1600e+03,1.4844e-05
6.1700e+03,1.4644e-05
6.1800e+03,1.4425e-05
6.1900e+03,1.4207e-05
6.2000e+03,1.4008e-05
6.2100e+03,1.3842e-05
6.2200e+03,1.3709e-05
6.2300e+03,1.3604e-05
6.2400e+03,1.3522e-05
6.2500e+03,1.3460e-05
6.2600e+03,1.3416e-05
6.2700e+03,1.3383e-05
6.2800e+03,1.3355e-05
6.2900e+03,1.3326e-05
6.3000e+03,1.3297e-05
6.3100e+03,1.3270e-05
6.3200e+03,1.3251e-05
6.3300e+03,1.3243e-05
6.3400e+03,1.3249e-05
6.3500e+03,1.3266e-05
6.3600e+03,1.3289e-05
6.3700e+03,1.3309e-05
6.3800e+03,1.3320e-05
6.3900e+03,1.3321e-05
6.4000e+03,1.3312e-05
6.4100e+03,1.3298e-05
6.4200e+03,1.3281e-05
6.4300e+03,1.3264e-05
6.4400e+03,1.3249e-05
6.4500e+03,1.3240e-05
6.4600e+03,1.3243e-05
6.4700e+03,1.3255e-05
6.4800e+03,1.3274e-05
6.4900e+03,1.3298e-05
6.5000e+03,1.3324e-05
6.5100e+03,1.3351e-05
6.5200e+03,1.3382e-05
6.5300e+03,1.3421e-05
6.5400e+03,1.3470e-05
6.5500e+03,1.3525e-05
6.5600e+03,1.3582e-05
6.5700e+03,1.3635e-05
6.5800e+03,1.3681e-05
6.5900e+03,1.3720e-05
6.6000e+03,1.3752e-05
6.6100e+03,1.3775e-05
6.6200e+03,1.3791e-05
6.6300e+03,1.3802e-05
6.6400e+03,1.3809e-05
6.6500e+03,1.3812e-05
6.6600e+03,1.3811e-05
6.6700e+03,1.3808e-05
6.6800e+03,1.3806e-05
6.6900e+03,1.3806e-05
6.7000e+03,1.3808e-05
6.7100e+03,1.3811e-05
6.7200e+03,1.3814e-05
6.7300e+03,1.3816e-05
6.7400e+03,1.3813e-05
6.7500e+03,1.3806e-05
6.7600e+03,1.3794e-05
6.7700e+03,1.3782e-05
6.7800e+03,1.3774e-05
6.7900e+03,1.3774e-05
6.8000e+03,1.3784e-05
6.8100e+03,1.3804e-05
6.8200e+03,1.3828e-05
6.8300e+03,1.3848e-05
6.8400e+03,1.3857e-05
6.8500e+03,1.3852e-05
6.8600e+03,1.3840e-05
6.8700e+03,1.3827e-05
6.8800e+03,1.3814e-05
6.8900e+03,1.3801e-05
6.9000e+03,1.3788e-05
6.9100e+03,1.3780e-05
6.9200e+03,1.3778e-05
6.9300e+03,1.3783e-05
6.9400e+03,1.3790e-05
6.9500e+03,1.3795e-05
6.9600e+03,1.3795e-05
6.9700e+03,1.3793e-05
6.9800e+03,1.3797e-05
6.9900e+03,1.3815e-05
7.0000e+03,1.3851e-05
7.0100e+03,1.3903e-05
7.0200e+03,1.3965e-05
7.0300e+03,1.4028e-05
7.0400e+03,1.4083e-05
7.0500e+03,1.4123e-05
7.0600e+03,1.4149e-05
7.0700e+03,1.4163e-05
7.0800e+03,1.4170e-05
7.0900e+03,1.4172e-05
7.1000e+03,1.4175e-05
7.1100e+03,1.4182e-05
7.1200e+03,1.4198e-05
7.1300e+03,1.4226e-05
7.1400e+03,1.4261e-05
7.1500e+03,1.4295e-05
7.1600e+03,1.4315e-05
7.1700e+03,1.4317e-05
7.1800e+03,1.4307e-05
7.1900e+03,1.4305e-05
7.2000e+03,1.4328e-05
7.2100e+03,1.4377e-05
7.2200e+03,1.4441e-05
7.2300e+03,1.4509e-05
7.2400e+03,1.4569e-05
7.2500e+03,1.4619e-05
7.2600e+03,1.4657e-05
7.2700e+03,1.4681e-05
7.2800e+03,1.4692e-05
7.2900e+03,1.4697e-05
7.3000e+03,1.4704e-05
7.3100e+03,1.4721e-05
7.3200e+03,1.4749e-05
7.3300e+03,1.4783e-05
7.3400e+03,1.4817e-05
7.3500e+03,1.4846e-05
7.3600e+03,1.4869e-05
7.3700e+03,1.4884e-05
7.3800e+03,1.4889e-05
7.3900e+03,1.4881e-05
7.4000e+03,1.4857e-05
7.4100e+03,1.4821e-05
7.4200e+03,1.4777e-05
7.4300e+03,1.4736e-05
7.4400e+03,1.4708e-05
7.4500e+03,1.4696e-05
7.4600e+03,1.4699e-05
7.4700e+03,1.4712e-05
7.4800e+03,1.4729e-05
7.4900e+03,1.4750e-05
7.5000e+03,1.4777e-05
7.5100e+03,1.4811e-05
7.5200e+03,1.4851e-05
7.5300e+03,1.4890e-05
7.5400e+03,1.4929e-05
7.5500e+03,1.4970e-05
7.5600e+03,1.5016e-05
7.5700e+03,1.5064e-05
7.5800e+03,1.5103e-05
7.5900e+03,1.5129e-05
7.6000e+03,1.5139e-05
7.6100e+03,1.5140e-05
7.6200e+03,1.5134e-05
7.6300e+03,1.5126e-05
7.6400e+03,1.5117e-05
7.6500e+03,1.5107e-05
7.6600e+03,1.5095e-05
7.6700e+03,1.5082e-05
7.6800e+03,1.5071e-05
7.6900e+03,1.5062e-05
7.7000e+03,1.5055e-05
7.7100e+03,1.5050e-05
7.7200e+03,1.5045e-05
7.7300e+03,1.5039e-05
7.7400e+03,1.5033e-05
7.7500e+03,1.5027e-05
7.7600e+03,1.5024e-05
7.7700e+03,1.5024e-05
7.7800e+03,1.5025e-05
7.7900e+03,1.5026e-05
7.8000e+03,1.5025e-05
7.8100e+03,1.5018e-05
7.8200e+03,1.5007e-05
7.8300e+03,1.4992e-05
7.8400e+03,1.4975e-05
7.8500e+03,1.4959e-05
7.8600e+03,1.4946e-05
7.8700e+03,1.4939e-05
7.8800e+03,1.4941e-05
7.8900e+03,1.4953e-05
7.9000e+03,1.4974e-05
7.9100e+03,1.4999e-05
7.9200e+03,1.5028e-05
7.9300e+03,1.5066e-05
7.9400e+03,1.5116e-05
7.9500e+03,1.5177e-05
7.9600e+03,1.5244e-05
7.9700e+03,1.5312e-05
7.9800e+03,1.5375e-05
7.9900e+03,1.5432e-05
8.0000e+03,1.5479e-05
8.0100e+03,1.5518e-05
8.0200e+03,1.5545e-05
8.0300e+03,1.5561e-05
8.0400e+03,1.5568e-05
8.0500e+03,1.5565e-05
8.0600e+03,1.5555e-05
8.0700e+03,1.5536e-05
8.0800e+03,1.5507e-05
8.0900e+03,1.5464e-05
8.1000e+03,1.5405e-05
8.1100e+03,1.5330e-05
8.1200e+03,1.5242e-05
8.1300e+03,1.5145e-05
8.1400e+03,1.5044e-05
8.1500e+03,1.4943e-05
8.1600e+03,1.4842e-05
8.1700e+03,1.4745e-05
8.1800e+03,1.4661e-05
8.1900e+03,1.4597e-05
8.2000e+03,1.4557e-05
8.2100e+03,1.4530e-05
8.2200e+03,1.4506e-05
8.2300e+03,1.4481e-05
8.2400e+03,1.4455e-05
8.2500e+03,1.4428e-05
8.2600e+03,1.4395e-05
8.2700e+03,1.4355e-05
8.2800e+03,1.4309e-05
8.2900e+03,1.4262e-05
8.3000e+03,1.4215e-05
8.3100e+03,1.4172e-05
8.3200e+03,1.4131e-05
8.3300e+03,1.4095e-05
8.3400e+03,1.4067e-05
8.3500e+03,1.4053e-05
8.3600e+03,1.4056e-05
8.3700e+03,1.4074e-05
8.3800e+03,1.4104e-05
8.3900e+03,1.4139e-05
8.4000e+03,1.4175e-05
8.4100e+03,1.4205e-05
8.4200e+03,1.4226e-05
8.4300e+03,1.4235e-05
8.4400e+03,1.4233e-05
8.4500e+03,1.4223e-05
8.4600e+03,1.4210e-05
8.4700e+03,1.4198e-05
8.4800e+03,1.4190e-05
8.4900e+03,1.4184e-05
8.5000e+03,1.4182e-05
8.5100e+03,1.4180e-05
8.5200e+03,1.4173e-05
8.5300e+03,1.4156e-05
8.5400e+03,1.4127e-05
8.5500e+03,1.4088e-05
8.5600e+03,1.4043e-05
8.5700e+03,1.3997e-05
8.5800e+03,1.3958e-05
8.5900e+03,1.3927e-05
8.6000e+03,1.3903e-05
8.6100e+03,1.3882e-05
8.6200e+03,1.3863e-05
8.6300e+03,1.3847e-05
8.6400e+03,1.3838e-05
8.6500e+03,1.3838e-05
8.6600e+03,1.3845e-05
8.6700e+03,1.3856e-05
8.6800e+03,1.3865e-05
8.6900e+03,1.3869e-05
8.7000e+03,1.3869e-05
8.7100e+03,1.3866e-05
8.7200e+03,1.3863e-05
8.7300e+03,1.3860e-05
8.7400e+03,1.3857e-05
8.7500e+03,1.3857e-05
8.7600e+03,1.3859e-05
8.7700e+03,1.3863e-05
8.7800e+03,1.3867e-05
8.7900e+03,1.3866e-05
8.8000e+03,1.3854e-05
8.8100e+03,1.3829e-05
8.8200e+03,1.3793e-05
8.8300e+03,1.3749e-05
8.8400e+03,1.3701e-05
8.8500e+03,1.3648e-05
8.8600e+03,1.3588e-05
8.8700e+03,1.3527e-05
8.8800e+03,1.3472e-05
8.8900e+03,1.3426e-05
8.9000e+03,1.3388e-05
8.9100e+03,1.3354e-05
8.9200e+03,1.3322e-05
8.9300e+03,1.3292e-05
8.9400e+03,1.3268e-05
8.9500e+03,1.3253e-05
8.9600e+03,1.3250e-05
8.9700e+03,1.3258e-05
8.9800e+03,1.3272e-05
8.9900e+03,1.3292e-05
9.0000e+03,1.3313e-05
9.0100e+03,1.3336e-05
9.0200e+03,1.3355e-05
9.0300e+03,1.3367e-05
9.0400e+03,1.3373e-05
9.0500e+03,1.3374e-05
9.0600e+03,1.3374e-05
9.0700e+03,1.3373e-05
