# Time , Side-Flux
0.0000e+00,0.0000e+00
1.0000e+01,9.0870e-07
2.0000e+01,1.8047e-06
3.0000e+01,2.6762e-06
4.0000e+01,3.5125e-06
5.0000e+01,4.3050e-06
6.0000e+01,5.0471e-06
7.0000e+01,5.7346e-06
8.0000e+01,6.3650e-06
9.0000e+01,6.9380e-06
1.0000e+02,7.4546e-06
1.1000e+02,7.9171e-06
1.2000e+02,8.3286e-06
1.3000e+02,8.6926e-06
1.4000e+02,9.0132e-06
1.5000e+02,9.2944e-06
1.6000e+02,9.5402e-06
1.7000e+02,9.7545e-06
1.8000e+02,9.9409e-06
1.9000e+02,1.0103e-05
2.0000e+02,1.0243e-05
2.1000e+02,1.0365e-05
2.2000e+02,1.0470e-05
2.3000e+02,1.0562e-05
2.4000e+02,1.0641e-05
2.5000e+02,1.0710e-05
2.6000e+02,1.0770e-05
2.7000e+02,1.0822e-05
2.8000e+02,1.0868e-05
2.9000e+02,1.0908e-05
3.0000e+02,1.0943e-05
3.1000e+02,1.0974e-05
3.2000e+02,1.1001e-05
3.3000e+02,1.1026e-05
3.4000e+02,1.1047e-05
3.5000e+02,1.1066e-05
3.6000e+02,1.1083e-05
3.7000e+02,1.1099e-05
3.8000e+02,1.1112e-05
3.9000e+02,1.1124e-05
4.0000e+02,1.1135e-05
4.1000e+02,1.1145e-05
4.2000e+02,1.1153e-05
4.3000e+02,1.1161e-05
4.4000e+02,1.1167e-05
4.5000e+02,1.1173e-05
4.6000e+02,1.1178e-05
4.7000e+02,1.1182e-05
4.8000e+02,1.1185e-05
4.9000e+02,1.1188e-05
5.0000e+02,1.1191e-05
5.1000e+02,1.1193e-05
5.2000e+02,1.1195e-05
5.3000e+02,1.1196e-05
5.4000e+02,1.1198e-05
5.5000e+02,1.1199e-05
5.6000e+02,1.1200e-05
5.7000e+02,1.1201e-05
5.8000e+02,1.1202e-05
5.9000e+02,1.1203e-05
6.0000e+02,1.1204e-05
6.1000e+02,1.1205e-05
6.2000e+02,1.1206e-05
6.3000e+02,1.1207e-05
6.4000e+02,1.1207e-05
6.5000e+02,1.1208e-05
6.6000e+02,1.1209e-05
6.7000e+02,1.1209e-05
6.8000e+02,1.1210e-05
6.9000e+02,1.1210e-05
7.0000e+02,1.1210e-05
7.1000e+02,1.1210e-05
7.2000e+02,1.1210e-05
7.3000e+02,1.1210e-05
7.4000e+02,1.1210e-05
7.5000e+02,1.1209e-05
7.6000e+02,1.1209e-05
7.7000e+02,1.1208e-05
7.8000e+02,1.1208e-05
7.9000e+02,1.1207e-05
8.0000e+02,1.1206e-05
8.1000e+02,1.1205e-05
8.2000e+02,1.1204e-05
8.3000e+02,1.1201e-05
8.4000e+02,1.1199e-05
8.5000e+02,1.1195e-05
8.6000e+02,1.1190e-05
8.7000e+02,1.1184e-05
8.8000e+02,1.1176e-05
8.9000e+02,1.1167e-05
9.0000e+02,1.1156e-05
9.1000e+02,1.1142e-05
9.2000e+02,1.1126e-05
9.3000e+02,1.1107e-05
9.4000e+02,1.1086e-05
9.5000e+02,1.1062e-05
9.6000e+02,1.1036e-05
9.7000e+02,1.1007e-05
9.8000e+02,1.0976e-05
9.9000e+02,1.0942e-05
1.0000e+03,1.0907e-05
1.0100e+03,1.0870e-05
1.0200e+03,1.0831e-05
1.0300e+03,1.0791e-05
1.0400e+03,1.0750e-05
1.0500e+03,1.0708e-05
1.0600e+03,1.0666e-05
1.0700e+03,1.0624e-05
1.0800e+03,1.0582e-05
1.0900e+03,1.0540e-05
1.1000e+03,1.0500e-05
1.1100e+03,1.0461e-05
1.1200e+03,1.0425e-05
1.1300e+03,1.0390e-05
1.1400e+03,1.0359e-05
1.1500e+03,1.0330e-05
1.1600e+03,1.0305e-05
1.1700e+03,1.0284e-05
1.1800e+03,1.0266e-05
1.1900e+03,1.0251e-05
1.2000e+03,1.0240e-05
1.2100e+03,1.0231e-05
1.2200e+03,1.0224e-05
1.2300e+03,1.0220e-05
1.2400e+03,1.0217e-05
1.2500e+03,1.0215e-05
1.2600e+03,1.0214e-05
1.2700e+03,1.0213e-05
1.2800e+03,1.0212e-05
1.2900e+03,1.0211e-05
1.3000e+03,1.0210e-05
1.3100e+03,1.0208e-05
1.3200e+03,1.0207e-05
1.3300e+03,1.0206e-05
1.3400e+03,1.0204e-05
1.3500e+03,1.0203e-05
1.3600e+03,1.0202e-05
1.3700e+03,1.0202e-05
1.3800e+03,1.0203e-05
1.3900e+03,1.0204e-05
1.4000e+03,1.0207e-05
1.4100e+03,1.0210e-05
1.4200e+03,1.0213e-05
1.4300e+03,1.0217e-05
1.4400e+03,1.0222e-05
1.4500e+03,1.0227e-05
1.4600e+03,1.0231e-05
1.4700e+03,1.0236e-05
1.4800e+03,1.0240e-05
1.4900e+03,1.0244e-05
1.5000e+03,1.0247e-05
1.5100e+03,1.0250e-05
1.5200e+03,1.0252e-05
1.5300e+03,1.0253e-05
1.5400e+03,1.0254e-05
1.5500e+03,1.0255e-05
1.5600e+03,1.0255e-05
1.5700e+03,1.0255e-05
1.5800e+03,1.0254e-05
1.5900e+03,1.0254e-05
1.6000e+03,1.0253e-05
1.6100e+03,1.0251e-05
1.6200e+03,1.0250e-05
1.6300e+03,1.0248e-05
1.6400e+03,1.0245e-05
1.6500e+03,1.0242e-05
1.6600e+03,1.0239e-05
1.6700e+03,1.0235e-05
1.6800e+03,1.0231e-05
1.6900e+03,1.0226e-05
1.7000e+03,1.0221e-05
1.7100e+03,1.0215e-05
1.7200e+03,1.0208e-05
1.7300e+03,1.0201e-05
1.7400e+03,1.0193e-05
1.7500e+03,1.0185e-05
1.7600e+03,1.0177e-05
1.7700e+03,1.0168e-05
1.7800e+03,1.0160e-05
1.7900e+03,1.0151e-05
1.8000e+03,1.0142e-05
1.8100e+03,1.0133e-05
1.8200e+03,1.0125e-05
1.8300e+03,1.0117e-05
1.8400e+03,1.0110e-05
1.8500e+03,1.0103e-05
1.8600e+03,1.0097e-05
1.8700e+03,1.0092e-05
1.8800e+03,1.0088e-05
1.8900e+03,1.0085e-05
1.9000e+03,1.0083e-05
1.9100e+03,1.0082e-05
1.9200e+03,1.0082e-05
1.9300e+03,1.0083e-05
1.9400e+03,1.0083e-05
1.9500e+03,1.0085e-05
1.9600e+03,1.0086e-05
1.9700e+03,1.0087e-05
1.9800e+03,1.0087e-05
1.9900e+03,1.0087e-05
2.0000e+03,1.0087e-05
2.0100e+03,1.0085e-05
2.0200e+03,1.0083e-05
2.0300e+03,1.0080e-05
2.0400e+03,1.0076e-05
2.0500e+03,1.0070e-05
2.0600e+03,1.0063e-05
2.0700e+03,1.0054e-05
2.0800e+03,1.0043e-05
2.0900e+03,1.0029e-05
2.1000e+03,1.0014e-05
2.1100e+03,9.9959e-06
2.1200e+03,9.9752e-06
2.1300e+03,9.9519e-06
2.1400e+03,9.9260e-06
2.1500e+03,9.8977e-06
2.1600e+03,9.8671e-06
2.1700e+03,9.8347e-06
2.1800e+03,9.8009e-06
2.1900e+03,9.7662e-06
2.2000e+03,9.7312e-06
2.2100e+03,9.6967e-06
2.2200e+03,9.6632e-06
2.2300e+03,9.6315e-06
2.2400e+03,9.6022e-06
2.2500e+03,9.5757e-06
2.2600e+03,9.5525e-06
2.2700e+03,9.5328e-06
2.2800e+03,9.5167e-06
2.2900e+03,9.5041e-06
2.3000e+03,9.4948e-06
2.3100e+03,9.4885e-06
2.3200e+03,9.4848e-06
2.3300e+03,9.4832e-06
2.3400e+03,9.4832e-06
2.3500e+03,9.4844e-06
2.3600e+03,9.4863e-06
2.3700e+03,9.4885e-06
2.3800e+03,9.4908e-06
2.3900e+03,9.4930e-06
2.4000e+03,9.4948e-06
2.4100e+03,9.4962e-06
2.4200e+03,9.4972e-06
2.4300e+03,9.4976e-06
2.4400e+03,9.4976e-06
2.4500e+03,9.4972e-06
2.4600e+03,9.4962e-06
2.4700e+03,9.4948e-06
2.4800e+03,9.4931e-06
2.4900e+03,9.4910e-06
2.5000e+03,9.4885e-06
2.5100e+03,9.4859e-06
2.5200e+03,9.4831e-06
2.5300e+03,9.4802e-06
2.5400e+03,9.4773e-06
2.5500e+03,9.4745e-06
2.5600e+03,9.4718e-06
2.5700e+03,9.4692e-06
2.5800e+03,9.4668e-06
2.5900e+03,9.4646e-06
2.6000e+03,9.4626e-06
2.6100e+03,9.4608e-06
2.6200e+03,9.4591e-06
2.6300e+03,9.4574e-06
2.6400e+03,9.4558e-06
2.6500e+03,9.4542e-06
2.6600e+03,9.4525e-06
2.6700e+03,9.4507e-06
2.6800e+03,9.4487e-06
2.6900e+03,9.4467e-06
2.7000e+03,9.4444e-06
2.7100e+03,9.4421e-06
2.7200e+03,9.4396e-06
2.7300e+03,9.4370e-06
2.7400e+03,9.4344e-06
2.7500e+03,9.4318e-06
2.7600e+03,9.4293e-06
2.7700e+03,9.4270e-06
2.7800e+03,9.4249e-06
2.7900e+03,9.4230e-06
2.8000e+03,9.4214e-06
2.8100e+03,9.4199e-06
2.8200e+03,9.4185e-06
2.8300e+03,9.4171e-06
2.8400e+03,9.4155e-06
2.8500e+03,9.4134e-06
2.8600e+03,9.4106e-06
2.8700e+03,9.4069e-06
2.8800e+03,9.4019e-06
2.8900e+03,9.3955e-06
2.9000e+03,9.3874e-06
2.9100e+03,9.3774e-06
2.9200e+03,9.3654e-06
2.9300e+03,9.3512e-06
2.9400e+03,9.3348e-06
2.9500e+03,9.3163e-06
2.9600e+03,9.2959e-06
2.9700e+03,9.2736e-06
2.9800e+03,9.2498e-06
2.9900e+03,9.2247e-06
3.0000e+03,9.1986e-06
3.0100e+03,9.1720e-06
3.0200e+03,9.1452e-06
3.0300e+03,9.1187e-06
3.0400e+03,9.0929e-06
3.0500e+03,9.0681e-06
3.0600e+03,9.0448e-06
3.0700e+03,9.0232e-06
3.0800e+03,9.0036e-06
3.0900e+03,8.9864e-06
3.1000e+03,8.9715e-06
3.1100e+03,8.9592e-06
3.1200e+03,8.9496e-06
3.1300e+03,8.9425e-06
3.1400e+03,8.9379e-06
3.1500e+03,8.9356e-06
3.1600e+03,8.9354e-06
3.1700e+03,8.9369e-06
3.1800e+03,8.9399e-06
3.1900e+03,8.9440e-06
3.2000e+03,8.9488e-06
3.2100e+03,8.9540e-06
3.2200e+03,8.9593e-06
3.2300e+03,8.9645e-06
3.2400e+03,8.9695e-06
3.2500e+03,8.9741e-06
3.2600e+03,8.9782e-06
3.2700e+03,8.9817e-06
3.2800e+03,8.9846e-06
3.2900e+03,8.9870e-06
3.3000e+03,8.9887e-06
3.3100e+03,8.9900e-06
3.3200e+03,8.9908e-06
3.3300e+03,8.9912e-06
3.3400e+03,8.9913e-06
3.3500e+03,8.9913e-06
3.3600e+03,8.9911e-06
3.3700e+03,8.9909e-06
3.3800e+03,8.9907e-06
3.3900e+03,8.9905e-06
3.4000e+03,8.9902e-06
3.4100e+03,8.9898e-06
3.4200e+03,8.9892e-06
3.4300e+03,8.9883e-06
3.4400e+03,8.9871e-06
3.4500e+03,8.9854e-06
3.4600e+03,8.9831e-06
3.4700e+03,8.9803e-06
3.4800e+03,8.9768e-06
3.4900e+03,8.9728e-06
3.5000e+03,8.9681e-06
3.5100e+03,8.9630e-06
3.5200e+03,8.9573e-06
3.5300e+03,8.9513e-06
3.5400e+03,8.9451e-06
3.5500e+03,8.9387e-06
3.5600e+03,8.9324e-06
3.5700e+03,8.9261e-06
3.5800e+03,8.9202e-06
3.5900e+03,8.9146e-06
3.6000e+03,8.9094e-06
3.6100e+03,8.9048e-06
3.6200e+03,8.9007e-06
3.6300e+03,8.8973e-06
3.6400e+03,8.8943e-06
3.6500e+03,8.8919e-06
3.6600e+03,8.8899e-06
3.6700e+03,8.8882e-06
3.6800e+03,8.8866e-06
3.6900e+03,8.8850e-06
3.7000e+03,8.8832e-06
3.7100e+03,8.8811e-06
3.7200e+03,8.8787e-06
3.7300e+03,8.8760e-06
3.7400e+03,8.8728e-06
3.7500e+03,8.8695e-06
3.7600e+03,8.8661e-06
3.7700e+03,8.8627e-06
3.7800e+03,8.8595e-06
3.7900e+03,8.8565e-06
3.8000e+03,8.8539e-06
3.8100e+03,8.8516e-06
3.8200e+03,8.8496e-06
3.8300e+03,8.8477e-06
3.8400e+03,8.8458e-06
3.8500e+03,8.8438e-06
3.8600e+03,8.8414e-06
3.8700e+03,8.8386e-06
3.8800e+03,8.8351e-06
3.8900e+03,8.8309e-06
3.9000e+03,8.8258e-06
3.9100e+03,8.8198e-06
3.9200e+03,8.8130e-06
3.9300e+03,8.8054e-06
3.9400e+03,8.7969e-06
3.9500e+03,8.7878e-06
3.9600e+03,8.7782e-06
3.9700e+03,8.7682e-06
3.9800e+03,8.7578e-06
3.9900e+03,8.7472e-06
4.0000e+03,8.7364e-06
4.0100e+03,8.7254e-06
4.0200e+03,8.7143e-06
4.0300e+03,8.7031e-06
4.0400e+03,8.6918e-06
4.0500e+03,8.6806e-06
4.0600e+03,8.6694e-06
4.0700e+03,8.6584e-06
4.0800e+03,8.6477e-06
4.0900e+03,8.6373e-06
4.1000e+03,8.6275e-06
4.1100e+03,8.6183e-06
4.1200e+03,8.6099e-06
4.1300e+03,8.6022e-06
4.1400e+03,8.5953e-06
4.1500e+03,8.5893e-06
4.1600e+03,8.5842e-06
4.1700e+03,8.5799e-06
4.1800e+03,8.5764e-06
4.1900e+03,8.5736e-06
4.2000e+03,8.5713e-06
4.2100e+03,8.5694e-06
4.2200e+03,8.5678e-06
4.2300e+03,8.5662e-06
4.2400e+03,8.5647e-06
4.2500e+03,8.5630e-06
4.2600e+03,8.5611e-06
4.2700e+03,8.5589e-06
4.2800e+03,8.5563e-06
4.2900e+03,8.5534e-06
4.3000e+03,8.5501e-06
4.3100e+03,8.5464e-06
4.3200e+03,8.5425e-06
4.3300e+03,8.5383e-06
4.3400e+03,8.5339e-06
4.3500e+03,8.5292e-06
4.3600e+03,8.5244e-06
4.3700e+03,8.5194e-06
4.3800e+03,8.5143e-06
4.3900e+03,8.5090e-06
4.4000e+03,8.5036e-06
4.4100e+03,8.4982e-06
4.4200e+03,8.4927e-06
4.4300e+03,8.4872e-06
4.4400e+03,8.4818e-06
4.4500e+03,8.4764e-06
4.4600e+03,8.4711e-06
4.4700e+03,8.4659e-06
4.4800e+03,8.4609e-06
4.4900e+03,8.4562e-06
4.5000e+03,8.4516e-06
4.5100e+03,8.4473e-06
4.5200e+03,8.4434e-06
4.5300e+03,8.4397e-06
4.5400e+03,8.4362e-06
4.5500e+03,8.4331e-06
4.5600e+03,8.4303e-06
4.5700e+03,8.4277e-06
4.5800e+03,8.4253e-06
4.5900e+03,8.4231e-06
4.6000e+03,8.4212e-06
4.6100e+03,8.4193e-06
4.6200e+03,8.4176e-06
4.6300e+03,8.4160e-06
4.6400e+03,8.4144e-06
4.6500e+03,8.4128e-06
4.6600e+03,8.4113e-06
4.6700e+03,8.4097e-06
4.6800e+03,8.4080e-06
4.6900e+03,8.4063e-06
4.7000e+03,8.4045e-06
4.7100e+03,8.4026e-06
4.7200e+03,8.4006e-06
4.7300e+03,8.3984e-06
4.7400e+03,8.3961e-06
4.7500e+03,8.3936e-06
4.7600e+03,8.3908e-06
4.7700e+03,8.3878e-06
4.7800e+03,8.3844e-06
4.7900e+03,8.3806e-06
4.8000e+03,8.3763e-06
4.8100e+03,8.3716e-06
4.8200e+03,8.3664e-06
4.8300e+03,8.3607e-06
4.8400e+03,8.3545e-06
4.8500e+03,8.3479e-06
4.8600e+03,8.3409e-06
4.8700e+03,8.3335e-06
4.8800e+03,8.3259e-06
4.8900e+03,8.3180e-06
4.9000e+03,8.3100e-06
4.9100e+03,8.3021e-06
4.9200e+03,8.2942e-06
4.9300e+03,8.2866e-06
4.9400e+03,8.2794e-06
4.9500e+03,8.2728e-06
4.9600e+03,8.2670e-06
4.9700e+03,8.2622e-06
4.9800e+03,8.2585e-06
4.9900e+03,8.2562e-06
5.0000e+03,8.2554e-06
5.0100e+03,8.2561e-06
5.0200e+03,8.2584e-06
5.0300e+03,8.2621e-06
5.0400e+03,8.2671e-06
5.0500e+03,8.2730e-06
5.0600e+03,8.2792e-06
5.0700e+03,8.2851e-06
5.0800e+03,8.2901e-06
5.0900e+03,8.2933e-06
5.1000e+03,8.2940e-06
5.1100e+03,8.2913e-06
5.1200e+03,8.2847e-06
5.1300e+03,8.2736e-06
5.1400e+03,8.2576e-06
5.1500e+03,8.2366e-06
5.1600e+03,8.2107e-06
5.1700e+03,8.1803e-06
5.1800e+03,8.1459e-06
5.1900e+03,8.1082e-06
5.2000e+03,8.0682e-06
5.2100e+03,8.0269e-06
5.2200e+03,7.9854e-06
5.2300e+03,7.9445e-06
5.2400e+03,7.9052e-06
5.2500e+03,7.8684e-06
5.2600e+03,7.8345e-06
5.2700e+03,7.8042e-06
5.2800e+03,7.7776e-06
5.2900e+03,7.7549e-06
5.3000e+03,7.7361e-06
5.3100e+03,7.7212e-06
5.3200e+03,7.7101e-06
5.3300e+03,7.7026e-06
5.3400e+03,7.6987e-06
5.3500e+03,7.6982e-06
5.3600e+03,7.7010e-06
5.3700e+03,7.7070e-06
5.3800e+03,7.7161e-06
5.3900e+03,7.7279e-06
5.4000e+03,7.7420e-06
5.4100e+03,7.7580e-06
5.4200e+03,7.7752e-06
5.4300e+03,7.7929e-06
5.4400e+03,7.8103e-06
5.4500e+03,7.8267e-06
5.4600e+03,7.8414e-06
5.4700e+03,7.8537e-06
5.4800e+03,7.8632e-06
5.4900e+03,7.8695e-06
5.5000e+03,7.8724e-06
5.5100e+03,7.8721e-06
5.5200e+03,7.8687e-06
5.5300e+03,7.8626e-06
5.5400e+03,7.8543e-06
5.5500e+03,7.8442e-06
5.5600e+03,7.8329e-06
5.5700e+03,7.8212e-06
5.5800e+03,7.8094e-06
5.5900e+03,7.7980e-06
5.6000e+03,7.7874e-06
5.6100e+03,7.7778e-06
5.6200e+03,7.7693e-06
5.6300e+03,7.7618e-06
5.6400e+03,7.7552e-06
5.6500e+03,7.7494e-06
5.6600e+03,7.7441e-06
5.6700e+03,7.7392e-06
5.6800e+03,7.7344e-06
5.6900e+03,7.7298e-06
5.7000e+03,7.7253e-06
5.7100e+03,7.7211e-06
5.7200e+03,7.7172e-06
5.7300e+03,7.7138e-06
5.7400e+03,7.7114e-06
5.7500e+03,7.7101e-06
5.7600e+03,7.7101e-06
5.7700e+03,7.7118e-06
5.7800e+03,7.7151e-06
5.7900e+03,7.7202e-06
5.8000e+03,7.7269e-06
5.8100e+03,7.7350e-06
5.8200e+03,7.7443e-06
5.8300e+03,7.7544e-06
5.8400e+03,7.7648e-06
5.8500e+03,7.7750e-06
5.8600e+03,7.7846e-06
5.8700e+03,7.7931e-06
5.8800e+03,7.7999e-06
5.8900e+03,7.8049e-06
5.9000e+03,7.8075e-06
5.9100e+03,7.8075e-06
5.9200e+03,7.8047e-06
5.9300e+03,7.7990e-06
5.9400e+03,7.7903e-06
5.9500e+03,7.7786e-06
5.9600e+03,7.7641e-06
5.9700e+03,7.7469e-06
5.9800e+03,7.7274e-06
5.9900e+03,7.7059e-06
6.0000e+03,7.6830e-06
6.0100e+03,7.6591e-06
6.0200e+03,7.6349e-06
6.0300e+03,7.6110e-06
6.0400e+03,7.5881e-06
6.0500e+03,7.5667e-06
6.0600e+03,7.5475e-06
6.0700e+03,7.5309e-06
6.0800e+03,7.5173e-06
6.0900e+03,7.5071e-06
6.1000e+03,7.5004e-06
6.1100e+03,7.4973e-06
6.1200e+03,7.4978e-06
6.1300e+03,7.5016e-06
6.1400e+03,7.5086e-06
6.1500e+03,7.5183e-06
6.1600e+03,7.5305e-06
6.1700e+03,7.5446e-06
6.1800e+03,7.5602e-06
6.1900e+03,7.5769e-06
6.2000e+03,7.5942e-06
6.2100e+03,7.6118e-06
6.2200e+03,7.6294e-06
6.2300e+03,7.6465e-06
6.2400e+03,7.6631e-06
6.2500e+03,7.6787e-06
6.2600e+03,7.6934e-06
6.2700e+03,7.7070e-06
6.2800e+03,7.7194e-06
6.2900e+03,7.7306e-06
6.3000e+03,7.7406e-06
6.3100e+03,7.7495e-06
6.3200e+03,7.7573e-06
6.3300e+03,7.7642e-06
6.3400e+03,7.7703e-06
6.3500e+03,7.7756e-06
6.3600e+03,7.7804e-06
6.3700e+03,7.7846e-06
6.3800e+03,7.7884e-06
6.3900e+03,7.7918e-06
6.4000e+03,7.7950e-06
6.4100e+03,7.7980e-06
6.4200e+03,7.8008e-06
6.4300e+03,7.8036e-06
6.4400e+03,7.8063e-06
6.4500e+03,7.8090e-06
6.4600e+03,7.8117e-06
6.4700e+03,7.8144e-06
6.4800e+03,7.8172e-06
6.4900e+03,7.8201e-06
6.5000e+03,7.8229e-06
6.5100e+03,7.8257e-06
6.5200e+03,7.8284e-06
6.5300e+03,7.8307e-06
6.5400e+03,7.8327e-06
6.5500e+03,7.8341e-06
6.5600e+03,7.8349e-06
6.5700e+03,7.8349e-06
6.5800e+03,7.8341e-06
6.5900e+03,7.8324e-06
6.6000e+03,7.8298e-06
6.6100e+03,7.8263e-06
6.6200e+03,7.8222e-06
6.6300e+03,7.8174e-06
6.6400e+03,7.8121e-06
6.6500e+03,7.8065e-06
6.6600e+03,7.8007e-06
6.6700e+03,7.7947e-06
6.6800e+03,7.7887e-06
6.6900e+03,7.7827e-06
6.7000e+03,7.7766e-06
6.7100e+03,7.7706e-06
6.7200e+03,7.7647e-06
6.7300e+03,7.7588e-06
6.7400e+03,7.7530e-06
6.7500e+03,7.7473e-06
6.7600e+03,7.7417e-06
6.7700e+03,7.7363e-06
6.7800e+03,7.7310e-06
6.7900e+03,7.7256e-06
6.8000e+03,7.7202e-06
6.8100e+03,7.7145e-06
6.8200e+03,7.7081e-06
6.8300e+03,7.7009e-06
6.8400e+03,7.6924e-06
6.8500e+03,7.6823e-06
6.8600e+03,7.6702e-06
6.8700e+03,7.6557e-06
6.8800e+03,7.6386e-06
6.8900e+03,7.6187e-06
6.9000e+03,7.5957e-06
6.9100e+03,7.5696e-06
6.9200e+03,7.5405e-06
6.9300e+03,7.5085e-06
6.9400e+03,7.4740e-06
6.9500e+03,7.4372e-06
6.9600e+03,7.3988e-06
6.9700e+03,7.3593e-06
6.9800e+03,7.3194e-06
6.9900e+03,7.2797e-06
7.0000e+03,7.2411e-06
7.0100e+03,7.2041e-06
7.0200e+03,7.1695e-06
7.0300e+03,7.1378e-06
7.0400e+03,7.1096e-06
7.0500e+03,7.0853e-06
7.0600e+03,7.0652e-06
7.0700e+03,7.0497e-06
7.0800e+03,7.0390e-06
7.0900e+03,7.0332e-06
7.1000e+03,7.0326e-06
7.1100e+03,7.0370e-06
7.1200e+03,7.0467e-06
7.1300e+03,7.0615e-06
7.1400e+03,7.0814e-06
7.1500e+03,7.1060e-06
7.1600e+03,7.1353e-06
7.1700e+03,7.1688e-06
7.1800e+03,7.2061e-06
7.1900e+03,7.2468e-06
7.2000e+03,7.2905e-06
7.2100e+03,7.3367e-06
7.2200e+03,7.3849e-06
7.2300e+03,7.4345e-06
7.2400e+03,7.4853e-06
7.2500e+03,7.5366e-06
7.2600e+03,7.5880e-06
7.2700e+03,7.6391e-06
7.2800e+03,7.6894e-06
7.2900e+03,7.7386e-06
7.3000e+03,7.7862e-06
7.3100e+03,7.8318e-06
7.3200e+03,7.8752e-06
7.3300e+03,7.9159e-06
7.3400e+03,7.9537e-06
7.3500e+03,7.9883e-06
7.3600e+03,8.0193e-06
7.3700e+03,8.0465e-06
7.3800e+03,8.0698e-06
7.3900e+03,8.0889e-06
7.4000e+03,8.1036e-06
7.4100e+03,8.1139e-06
7.4200e+03,8.1195e-06
7.4300e+03,8.1205e-06
7.4400e+03,8.1166e-06
7.4500e+03,8.1078e-06
7.4600e+03,8.0941e-06
7.4700e+03,8.0757e-06
7.4800e+03,8.0525e-06
7.4900e+03,8.0248e-06
7.5000e+03,7.9928e-06
7.5100e+03,7.9570e-06
7.5200e+03,7.9178e-06
7.5300e+03,7.8756e-06
7.5400e+03,7.8309e-06
7.5500e+03,7.7844e-06
7.5600e+03,7.7367e-06
7.5700e+03,7.6882e-06
7.5800e+03,7.6395e-06
7.5900e+03,7.5910e-06
7.6000e+03,7.5431e-06
7.6100e+03,7.4961e-06
7.6200e+03,7.4504e-06
7.6300e+03,7.4061e-06
7.6400e+03,7.3635e-06
7.6500e+03,7.3227e-06
7.6600e+03,7.2839e-06
7.6700e+03,7.2471e-06
7.6800e+03,7.2126e-06
7.6900e+03,7.1802e-06
7.7000e+03,7.1501e-06
7.7100e+03,7.1221e-06
7.7200e+03,7.0962e-06
7.7300e+03,7.0720e-06
7.7400e+03,7.0495e-06
7.7500e+03,7.0283e-06
7.7600e+03,7.0082e-06
7.7700e+03,6.9890e-06
7.7800e+03,6.9704e-06
7.7900e+03,6.9523e-06
7.8000e+03,6.9346e-06
7.8100e+03,6.9171e-06
7.8200e+03,6.8997e-06
7.8300e+03,6.8824e-06
7.8400e+03,6.8650e-06
7.8500e+03,6.8474e-06
7.8600e+03,6.8297e-06
7.8700e+03,6.8116e-06
7.8800e+03,6.7931e-06
7.8900e+03,6.7743e-06
7.9000e+03,6.7551e-06
7.9100e+03,6.7356e-06
7.9200e+03,6.7159e-06
7.9300e+03,6.6959e-06
7.9400e+03,6.6759e-06
7.9500e+03,6.6558e-06
7.9600e+03,6.6359e-06
7.9700e+03,6.6161e-06
7.9800e+03,6.5966e-06
7.9900e+03,6.5774e-06
8.0000e+03,6.5587e-06
8.0100e+03,6.5404e-06
8.0200e+03,6.5227e-06
8.0300e+03,6.5056e-06
8.0400e+03,6.4890e-06
8.0500e+03,6.4729e-06
8.0600e+03,6.4572e-06
8.0700e+03,6.4420e-06
8.0800e+03,6.4270e-06
8.0900e+03,6.4123e-06
8.1000e+03,6.3976e-06
8.1100e+03,6.3830e-06
8.1200e+03,6.3683e-06
8.1300e+03,6.3535e-06
8.1400e+03,6.3386e-06
8.1500e+03,6.3234e-06
8.1600e+03,6.3081e-06
8.1700e+03,6.2927e-06
8.1800e+03,6.2771e-06
8.1900e+03,6.2614e-06
8.2000e+03,6.2457e-06
8.2100e+03,6.2300e-06
8.2200e+03,6.2143e-06
8.2300e+03,6.1988e-06
8.2400e+03,6.1834e-06
8.2500e+03,6.1682e-06
8.2600e+03,6.1532e-06
8.2700e+03,6.1384e-06
8.2800e+03,6.1237e-06
8.2900e+03,6.1091e-06
8.3000e+03,6.0944e-06
8.3100e+03,6.0795e-06
8.3200e+03,6.0643e-06
8.3300e+03,6.0485e-06
8.3400e+03,6.0321e-06
8.3500e+03,6.0149e-06
8.3600e+03,5.9969e-06
8.3700e+03,5.9778e-06
8.3800e+03,5.9579e-06
8.3900e+03,5.9371e-06
8.4000e+03,5.9156e-06
8.4100e+03,5.8936e-06
8.4200e+03,5.8711e-06
8.4300e+03,5.8485e-06
8.4400e+03,5.8260e-06
8.4500e+03,5.8039e-06
8.4600e+03,5.7823e-06
8.4700e+03,5.7615e-06
8.4800e+03,5.7415e-06
8.4900e+03,5.7226e-06
8.5000e+03,5.7048e-06
8.5100e+03,5.6880e-06
8.5200e+03,5.6722e-06
8.5300e+03,5.6574e-06
8.5400e+03,5.6434e-06
8.5500e+03,5.6302e-06
8.5600e+03,5.6176e-06
8.5700e+03,5.6057e-06
8.5800e+03,5.5944e-06
8.5900e+03,5.5838e-06
8.6000e+03,5.5739e-06
8.6100e+03,5.5650e-06
8.6200e+03,5.5571e-06
8.6300e+03,5.5506e-06
8.6400e+03,5.5456e-06
8.6500e+03,5.5423e-06
8.6600e+03,5.5408e-06
8.6700e+03,5.5410e-06
8.6800e+03,5.5430e-06
8.6900e+03,5.5465e-06
8.7000e+03,5.5512e-06
8.7100e+03,5.5569e-06
8.7200e+03,5.5631e-06
8.7300e+03,5.5695e-06
8.7400e+03,5.5758e-06
8.7500e+03,5.5816e-06
8.7600e+03,5.5866e-06
8.7700e+03,5.5909e-06
8.7800e+03,5.5941e-06
8.7900e+03,5.5964e-06
8.8000e+03,5.5978e-06
8.8100e+03,5.5983e-06
8.8200e+03,5.5980e-06
8.8300e+03,5.5973e-06
8.8400e+03,5.5962e-06
8.8500e+03,5.5953e-06
8.8600e+03,5.5947e-06
8.8700e+03,5.5949e-06
8.8800e+03,5.5963e-06
8.8900e+03,5.5992e-06
8.9000e+03,5.6041e-06
8.9100e+03,5.6112e-06
8.9200e+03,5.6208e-06
8.9300e+03,5.6331e-06
8.9400e+03,5.6482e-06
8.9500e+03,5.6664e-06
8.9600e+03,5.6877e-06
8.9700e+03,5.7121e-06
8.9800e+03,5.7400e-06
8.9900e+03,5.7713e-06
9.0000e+03,5.8062e-06
9.0100e+03,5.8450e-06
9.0200e+03,5.8879e-06
9.0300e+03,5.9352e-06
9.0400e+03,5.9872e-06
9.0500e+03,6.0440e-06
9.0600e+03,6.1059e-06
9.0700e+03,6.1730e-06
