# Time , Side-Flux
0.0000e+00,0.0000e+00
1.0000e+01,2.7849e-05
2.0000e+01,5.3792e-05
3.0000e+01,7.6513e-05
4.0000e+01,9.5495e-05
5.0000e+01,1.1086e-04
6.0000e+01,1.2306e-04
7.0000e+01,1.3265e-04
8.0000e+01,1.4016e-04
9.0000e+01,1.4604e-04
1.0000e+02,1.5064e-04
1.1000e+02,1.5424e-04
1.2000e+02,1.5705e-04
1.3000e+02,1.5926e-04
1.4000e+02,1.6100e-04
1.5000e+02,1.6236e-04
1.6000e+02,1.6342e-04
1.7000e+02,1.6426e-04
1.8000e+02,1.6491e-04
1.9000e+02,1.6543e-04
2.0000e+02,1.6583e-04
2.1000e+02,1.6614e-04
2.2000e+02,1.6639e-04
2.3000e+02,1.6659e-04
2.4000e+02,1.6674e-04
2.5000e+02,1.6686e-04
2.6000e+02,1.6695e-04
2.7000e+02,1.6702e-04
2.8000e+02,1.6708e-04
2.9000e+02,1.6713e-04
3.0000e+02,1.6717e-04
3.1000e+02,1.6720e-04
3.2000e+02,1.6724e-04
3.3000e+02,1.6726e-04
3.4000e+02,1.6729e-04
3.5000e+02,1.6731e-04
3.6000e+02,1.6734e-04
3.7000e+02,1.6736e-04
3.8000e+02,1.6739e-04
3.9000e+02,1.6741e-04
4.0000e+02,1.6742e-04
4.1000e+02,1.6743e-04
4.2000e+02,1.6744e-04
4.3000e+02,1.6745e-04
4.4000e+02,1.6747e-04
4.5000e+02,1.6748e-04
4.6000e+02,1.6749e-04
4.7000e+02,1.6750e-04
4.8000e+02,1.6751e-04
4.9000e+02,1.6751e-04
5.0000e+02,1.6751e-04
5.1000e+02,1.6751e-04
5.2000e+02,1.6750e-04
5.3000e+02,1.6749e-04
5.4000e+02,1.6748e-04
5.5000e+02,1.6746e-04
5.6000e+02,1.6744e-04
5.7000e+02,1.6742e-04
5.8000e+02,1.6738e-04
5.9000e+02,1.6734e-04
6.0000e+02,1.6728e-04
6.1000e+02,1.6720e-04
6.2000e+02,1.6710e-04
6.3000e+02,1.6698e-04
6.4000e+02,1.6683e-04
6.5000e+02,1.6664e-04
6.6000e+02,1.6642e-04
6.7000e+02,1.6616e-04
6.8000e+02,1.6587e-04
6.9000e+02,1.6555e-04
7.0000e+02,1.6521e-04
7.1000e+02,1.6483e-04
7.2000e+02,1.6442e-04
7.3000e+02,1.6399e-04
7.4000e+02,1.6352e-04
7.5000e+02,1.6306e-04
7.6000e+02,1.6260e-04
7.7000e+02,1.6216e-04
7.8000e+02,1.6175e-04
7.9000e+02,1.6135e-04
8.0000e+02,1.6093e-04
8.1000e+02,1.6048e-04
8.2000e+02,1.5998e-04
8.3000e+02,1.5942e-04
8.4000e+02,1.5883e-04
8.5000e+02,1.5824e-04
8.6000e+02,1.5768e-04
8.7000e+02,1.5718e-04
8.8000e+02,1.5674e-04
8.9000e+02,1.5633e-04
9.0000e+02,1.5591e-04
9.1000e+02,1.5542e-04
9.2000e+02,1.5480e-04
9.3000e+02,1.5402e-04
9.4000e+02,1.5305e-04
9.5000e+02,1.5192e-04
9.6000e+02,1.5066e-04
9.7000e+02,1.4935e-04
9.8000e+02,1.4808e-04
9.9000e+02,1.4695e-04
1.0000e+03,1.4601e-04
1.0100e+03,1.4528e-04
1.0200e+03,1.4474e-04
1.0300e+03,1.4430e-04
1.0400e+03,1.4386e-04
1.0500e+03,1.4333e-04
1.0600e+03,1.4262e-04
1.0700e+03,1.4167e-04
1.0800e+03,1.4046e-04
1.0900e+03,1.3900e-04
1.1000e+03,1.3735e-04
1.1100e+03,1.3561e-04
1.1200e+03,1.3388e-04
1.1300e+03,1.3226e-04
1.1400e+03,1.3084e-04
1.1500e+03,1.2965e-04
1.1600e+03,1.2871e-04
1.1700e+03,1.2803e-04
1.1800e+03,1.2760e-04
1.1900e+03,1.2738e-04
1.2000e+03,1.2736e-04
1.2100e+03,1.2749e-04
1.2200e+03,1.2773e-04
1.2300e+03,1.2802e-04
1.2400e+03,1.2830e-04
1.2500e+03,1.2853e-04
1.2600e+03,1.2866e-04
1.2700e+03,1.2867e-04
1.2800e+03,1.2859e-04
1.2900e+03,1.2843e-04
1.3000e+03,1.2821e-04
1.3100e+03,1.2796e-04
1.3200e+03,1.2769e-04
1.3300e+03,1.2739e-04
1.3400e+03,1.2705e-04
1.3500e+03,1.2667e-04
1.3600e+03,1.2626e-04
1.3700e+03,1.2583e-04
1.3800e+03,1.2541e-04
1.3900e+03,1.2504e-04
1.4000e+03,1.2473e-04
1.4100e+03,1.2449e-04
1.4200e+03,1.2434e-04
1.4300e+03,1.2425e-04
1.4400e+03,1.2422e-04
1.4500e+03,1.2424e-04
1.4600e+03,1.2427e-04
1.4700e+03,1.2431e-04
1.4800e+03,1.2435e-04
1.4900e+03,1.2438e-04
1.5000e+03,1.2440e-04
1.5100e+03,1.2441e-04
1.5200e+03,1.2440e-04
1.5300e+03,1.2439e-04
1.5400e+03,1.2438e-04
1.5500e+03,1.2437e-04
1.5600e+03,1.2436e-04
1.5700e+03,1.2435e-04
1.5800e+03,1.2435e-04
1.5900e+03,1.2434e-04
1.6000e+03,1.2434e-04
1.6100e+03,1.2433e-04
1.6200e+03,1.2433e-04
1.6300e+03,1.2434e-04
1.6400e+03,1.2434e-04
1.6500e+03,1.2433e-04
1.6600e+03,1.2431e-04
1.6700e+03,1.2428e-04
1.6800e+03,1.2424e-04
1.6900e+03,1.2419e-04
1.7000e+03,1.2414e-04
1.7100e+03,1.2407e-04
1.7200e+03,1.2399e-04
1.7300e+03,1.2389e-04
1.7400e+03,1.2379e-04
1.7500e+03,1.2368e-04
1.7600e+03,1.2359e-04
1.7700e+03,1.2352e-04
1.7800e+03,1.2347e-04
1.7900e+03,1.2344e-04
1.8000e+03,1.2340e-04
1.8100e+03,1.2331e-04
1.8200e+03,1.2317e-04
1.8300e+03,1.2295e-04
1.8400e+03,1.2267e-04
1.8500e+03,1.2234e-04
1.8600e+03,1.2199e-04
1.8700e+03,1.2166e-04
1.8800e+03,1.2137e-04
1.8900e+03,1.2111e-04
1.9000e+03,1.2090e-04
1.9100e+03,1.2072e-04
1.9200e+03,1.2058e-04
1.9300e+03,1.2048e-04
1.9400e+03,1.2040e-04
1.9500e+03,1.2036e-04
1.9600e+03,1.2034e-04
1.9700e+03,1.2034e-04
1.9800e+03,1.2035e-04
1.9900e+03,1.2035e-04
2.0000e+03,1.2035e-04
2.0100e+03,1.2034e-04
2.0200e+03,1.2031e-04
2.0300e+03,1.2026e-04
2.0400e+03,1.2019e-04
2.0500e+03,1.2009e-04
2.0600e+03,1.1995e-04
2.0700e+03,1.1978e-04
2.0800e+03,1.1956e-04
2.0900e+03,1.1928e-04
2.1000e+03,1.1895e-04
2.1100e+03,1.1855e-04
2.1200e+03,1.1807e-04
2.1300e+03,1.1749e-04
2.1400e+03,1.1680e-04
2.1500e+03,1.1598e-04
2.1600e+03,1.1502e-04
2.1700e+03,1.1394e-04
2.1800e+03,1.1274e-04
2.1900e+03,1.1145e-04
2.2000e+03,1.1012e-04
2.2100e+03,1.0879e-04
2.2200e+03,1.0749e-04
2.2300e+03,1.0626e-04
2.2400e+03,1.0510e-04
2.2500e+03,1.0404e-04
2.2600e+03,1.0311e-04
2.2700e+03,1.0234e-04
2.2800e+03,1.0177e-04
2.2900e+03,1.0139e-04
2.3000e+03,1.0121e-04
2.3100e+03,1.0119e-04
2.3200e+03,1.0129e-04
2.3300e+03,1.0147e-04
2.3400e+03,1.0168e-04
2.3500e+03,1.0187e-04
2.3600e+03,1.0204e-04
2.3700e+03,1.0216e-04
2.3800e+03,1.0224e-04
2.3900e+03,1.0228e-04
2.4000e+03,1.0228e-04
2.4100e+03,1.0227e-04
2.4200e+03,1.0223e-04
2.4300e+03,1.0220e-04
2.4400e+03,1.0217e-04
2.4500e+03,1.0217e-04
2.4600e+03,1.0218e-04
2.4700e+03,1.0217e-04
2.4800e+03,1.0213e-04
2.4900e+03,1.0205e-04
2.5000e+03,1.0193e-04
2.5100e+03,1.0178e-04
2.5200e+03,1.0161e-04
2.5300e+03,1.0143e-04
2.5400e+03,1.0123e-04
2.5500e+03,1.0103e-04
2.5600e+03,1.0082e-04
2.5700e+03,1.0062e-04
2.5800e+03,1.0044e-04
2.5900e+03,1.0030e-04
2.6000e+03,1.0020e-04
2.6100e+03,1.0015e-04
2.6200e+03,1.0014e-04
2.6300e+03,1.0016e-04
2.6400e+03,1.0018e-04
2.6500e+03,1.0021e-04
2.6600e+03,1.0023e-04
2.6700e+03,1.0025e-04
2.6800e+03,1.0027e-04
2.6900e+03,1.0027e-04
2.7000e+03,1.0025e-04
2.7100e+03,1.0021e-04
2.7200e+03,1.0014e-04
2.7300e+03,1.0004e-04
2.7400e+03,9.9914e-05
2.7500e+03,9.9773e-05
2.7600e+03,9.9636e-05
2.7700e+03,9.9518e-05
2.7800e+03,9.9430e-05
2.7900e+03,9.9371e-05
2.8000e+03,9.9332e-05
2.8100e+03,9.9303e-05
2.8200e+03,9.9275e-05
2.8300e+03,9.9242e-05
2.8400e+03,9.9200e-05
2.8500e+03,9.9141e-05
2.8600e+03,9.9058e-05
2.8700e+03,9.8940e-05
2.8800e+03,9.8774e-05
2.8900e+03,9.8551e-05
2.9000e+03,9.8260e-05
2.9100e+03,9.7894e-05
2.9200e+03,9.7458e-05
2.9300e+03,9.6963e-05
2.9400e+03,9.6427e-05
2.9500e+03,9.5865e-05
2.9600e+03,9.5279e-05
2.9700e+03,9.4664e-05
2.9800e+03,9.4002e-05
2.9900e+03,9.3280e-05
3.0000e+03,9.2493e-05
3.0100e+03,9.1657e-05
3.0200e+03,9.0805e-05
3.0300e+03,8.9976e-05
3.0400e+03,8.9199e-05
3.0500e+03,8.8491e-05
3.0600e+03,8.7848e-05
3.0700e+03,8.7251e-05
3.0800e+03,8.6662e-05
3.0900e+03,8.6037e-05
3.1000e+03,8.5352e-05
3.1100e+03,8.4619e-05
3.1200e+03,8.3887e-05
3.1300e+03,8.3219e-05
3.1400e+03,8.2668e-05
3.1500e+03,8.2259e-05
3.1600e+03,8.1991e-05
3.1700e+03,8.1846e-05
3.1800e+03,8.1788e-05
3.1900e+03,8.1778e-05
3.2000e+03,8.1777e-05
3.2100e+03,8.1759e-05
3.2200e+03,8.1718e-05
3.2300e+03,8.1659e-05
3.2400e+03,8.1594e-05
3.2500e+03,8.1534e-05
3.2600e+03,8.1486e-05
3.2700e+03,8.1453e-05
3.2800e+03,8.1436e-05
3.2900e+03,8.1429e-05
3.3000e+03,8.1428e-05
3.3100e+03,8.1426e-05
3.3200e+03,8.1421e-05
3.3300e+03,8.1412e-05
3.3400e+03,8.1399e-05
3.3500e+03,8.1385e-05
3.3600e+03,8.1372e-05
3.3700e+03,8.1362e-05
3.3800e+03,8.1355e-05
3.3900e+03,8.1349e-05
3.4000e+03,8.1340e-05
3.4100e+03,8.1321e-05
3.4200e+03,8.1287e-05
3.4300e+03,8.1235e-05
3.4400e+03,8.1165e-05
3.4500e+03,8.1080e-05
3.4600e+03,8.0985e-05
3.4700e+03,8.0883e-05
3.4800e+03,8.0770e-05
3.4900e+03,8.0636e-05
3.5000e+03,8.0473e-05
3.5100e+03,8.0285e-05
3.5200e+03,8.0081e-05
3.5300e+03,7.9878e-05
3.5400e+03,7.9692e-05
3.5500e+03,7.9532e-05
3.5600e+03,7.9400e-05
3.5700e+03,7.9293e-05
3.5800e+03,7.9207e-05
3.5900e+03,7.9132e-05
3.6000e+03,7.9064e-05
3.6100e+03,7.8998e-05
3.6200e+03,7.8933e-05
3.6300e+03,7.8876e-05
3.6400e+03,7.8836e-05
3.6500e+03,7.8826e-05
3.6600e+03,7.8856e-05
3.6700e+03,7.8925e-05
3.6800e+03,7.9023e-05
3.6900e+03,7.9130e-05
3.7000e+03,7.9224e-05
3.7100e+03,7.9283e-05
3.7200e+03,7.9294e-05
3.7300e+03,7.9247e-05
3.7400e+03,7.9145e-05
3.7500e+03,7.8995e-05
3.7600e+03,7.8821e-05
3.7700e+03,7.8649e-05
3.7800e+03,7.8511e-05
3.7900e+03,7.8426e-05
3.8000e+03,7.8402e-05
3.8100e+03,7.8430e-05
3.8200e+03,7.8494e-05
3.8300e+03,7.8571e-05
3.8400e+03,7.8643e-05
3.8500e+03,7.8695e-05
3.8600e+03,7.8723e-05
3.8700e+03,7.8733e-05
3.8800e+03,7.8735e-05
3.8900e+03,7.8732e-05
3.9000e+03,7.8715e-05
3.9100e+03,7.8664e-05
3.9200e+03,7.8555e-05
3.9300e+03,7.8373e-05
3.9400e+03,7.8119e-05
3.9500e+03,7.7815e-05
3.9600e+03,7.7497e-05
3.9700e+03,7.7202e-05
3.9800e+03,7.6956e-05
3.9900e+03,7.6763e-05
4.0000e+03,7.6599e-05
4.0100e+03,7.6424e-05
4.0200e+03,7.6193e-05
4.0300e+03,7.5876e-05
4.0400e+03,7.5465e-05
4.0500e+03,7.4977e-05
4.0600e+03,7.4450e-05
4.0700e+03,7.3929e-05
4.0800e+03,7.3453e-05
4.0900e+03,7.3047e-05
4.1000e+03,7.2712e-05
4.1100e+03,7.2425e-05
4.1200e+03,7.2151e-05
4.1300e+03,7.1859e-05
4.1400e+03,7.1543e-05
4.1500e+03,7.1214e-05
4.1600e+03,7.0902e-05
4.1700e+03,7.0638e-05
4.1800e+03,7.0446e-05
4.1900e+03,7.0337e-05
4.2000e+03,7.0304e-05
4.2100e+03,7.0330e-05
4.2200e+03,7.0391e-05
4.2300e+03,7.0467e-05
4.2400e+03,7.0538e-05
4.2500e+03,7.0594e-05
4.2600e+03,7.0627e-05
4.2700e+03,7.0632e-05
4.2800e+03,7.0601e-05
4.2900e+03,7.0527e-05
4.3000e+03,7.0407e-05
4.3100e+03,7.0245e-05
4.3200e+03,7.0055e-05
4.3300e+03,6.9852e-05
4.3400e+03,6.9654e-05
4.3500e+03,6.9473e-05
4.3600e+03,6.9316e-05
4.3700e+03,6.9181e-05
4.3800e+03,6.9054e-05
4.3900e+03,6.8911e-05
4.4000e+03,6.8726e-05
4.4100e+03,6.8475e-05
4.4200e+03,6.8147e-05
4.4300e+03,6.7748e-05
4.4400e+03,6.7295e-05
4.4500e+03,6.6811e-05
4.4600e+03,6.6324e-05
4.4700e+03,6.5865e-05
4.4800e+03,6.5460e-05
4.4900e+03,6.5128e-05
4.5000e+03,6.4878e-05
4.5100e+03,6.4708e-05
4.5200e+03,6.4609e-05
4.5300e+03,6.4566e-05
4.5400e+03,6.4560e-05
4.5500e+03,6.4572e-05
4.5600e+03,6.4587e-05
4.5700e+03,6.4598e-05
4.5800e+03,6.4601e-05
4.5900e+03,6.4602e-05
4.6000e+03,6.4605e-05
4.6100e+03,6.4619e-05
4.6200e+03,6.4648e-05
4.6300e+03,6.4690e-05
4.6400e+03,6.4738e-05
4.6500e+03,6.4778e-05
4.6600e+03,6.4797e-05
4.6700e+03,6.4788e-05
4.6800e+03,6.4752e-05
4.6900e+03,6.4696e-05
4.7000e+03,6.4632e-05
4.7100e+03,6.4575e-05
4.7200e+03,6.4536e-05
4.7300e+03,6.4523e-05
4.7400e+03,6.4538e-05
4.7500e+03,6.4574e-05
4.7600e+03,6.4615e-05
4.7700e+03,6.4642e-05
4.7800e+03,6.4640e-05
4.7900e+03,6.4595e-05
4.8000e+03,6.4502e-05
4.8100e+03,6.4362e-05
4.8200e+03,6.4181e-05
4.8300e+03,6.3973e-05
4.8400e+03,6.3751e-05
4.8500e+03,6.3527e-05
4.8600e+03,6.3308e-05
4.8700e+03,6.3097e-05
4.8800e+03,6.2892e-05
4.8900e+03,6.2689e-05
4.9000e+03,6.2484e-05
4.9100e+03,6.2276e-05
4.9200e+03,6.2070e-05
4.9300e+03,6.1871e-05
4.9400e+03,6.1683e-05
4.9500e+03,6.1508e-05
4.9600e+03,6.1344e-05
4.9700e+03,6.1196e-05
4.9800e+03,6.1071e-05
4.9900e+03,6.0987e-05
5.0000e+03,6.0964e-05
5.0100e+03,6.1021e-05
5.0200e+03,6.1169e-05
5.0300e+03,6.1408e-05
5.0400e+03,6.1724e-05
5.0500e+03,6.2101e-05
5.0600e+03,6.2520e-05
5.0700e+03,6.2955e-05
5.0800e+03,6.3373e-05
5.0900e+03,6.3723e-05
5.1000e+03,6.3955e-05
5.1100e+03,6.4030e-05
5.1200e+03,6.3929e-05
5.1300e+03,6.3642e-05
5.1400e+03,6.3157e-05
5.1500e+03,6.2467e-05
5.1600e+03,6.1574e-05
5.1700e+03,6.0505e-05
5.1800e+03,5.9304e-05
5.1900e+03,5.8033e-05
5.2000e+03,5.6759e-05
5.2100e+03,5.5543e-05
5.2200e+03,5.4433e-05
5.2300e+03,5.3462e-05
5.2400e+03,5.2646e-05
5.2500e+03,5.1997e-05
5.2600e+03,5.1515e-05
5.2700e+03,5.1194e-05
5.2800e+03,5.1015e-05
5.2900e+03,5.0945e-05
5.3000e+03,5.0939e-05
5.3100e+03,5.0942e-05
5.3200e+03,5.0900e-05
5.3300e+03,5.0772e-05
5.3400e+03,5.0550e-05
5.3500e+03,5.0264e-05
5.3600e+03,4.9968e-05
5.3700e+03,4.9719e-05
5.3800e+03,4.9570e-05
5.3900e+03,4.9559e-05
5.4000e+03,4.9706e-05
5.4100e+03,5.0014e-05
5.4200e+03,5.0470e-05
5.4300e+03,5.1046e-05
5.4400e+03,5.1702e-05
5.4500e+03,5.2391e-05
5.4600e+03,5.3054e-05
5.4700e+03,5.3637e-05
5.4800e+03,5.4103e-05
5.4900e+03,5.4440e-05
5.5000e+03,5.4662e-05
5.5100e+03,5.4792e-05
5.5200e+03,5.4849e-05
5.5300e+03,5.4833e-05
5.5400e+03,5.4739e-05
5.5500e+03,5.4559e-05
5.5600e+03,5.4289e-05
5.5700e+03,5.3941e-05
5.5800e+03,5.3541e-05
5.5900e+03,5.3123e-05
5.6000e+03,5.2714e-05
5.6100e+03,5.2330e-05
5.6200e+03,5.1979e-05
5.6300e+03,5.1663e-05
5.6400e+03,5.1384e-05
5.6500e+03,5.1145e-05
5.6600e+03,5.0950e-05
5.6700e+03,5.0801e-05
5.6800e+03,5.0696e-05
5.6900e+03,5.0625e-05
5.7000e+03,5.0577e-05
5.7100e+03,5.0539e-05
5.7200e+03,5.0509e-05
5.7300e+03,5.0493e-05
5.7400e+03,5.0507e-05
5.7500e+03,5.0574e-05
5.7600e+03,5.0714e-05
5.7700e+03,5.0936e-05
5.7800e+03,5.1233e-05
5.7900e+03,5.1586e-05
5.8000e+03,5.1971e-05
5.8100e+03,5.2369e-05
5.8200e+03,5.2771e-05
5.8300e+03,5.3169e-05
5.8400e+03,5.3549e-05
5.8500e+03,5.3891e-05
5.8600e+03,5.4175e-05
5.8700e+03,5.4391e-05
5.8800e+03,5.4549e-05
5.8900e+03,5.4666e-05
5.9000e+03,5.4766e-05
5.9100e+03,5.4862e-05
5.9200e+03,5.4962e-05
5.9300e+03,5.5065e-05
5.9400e+03,5.5169e-05
5.9500e+03,5.5273e-05
5.9600e+03,5.5372e-05
5.9700e+03,5.5465e-05
5.9800e+03,5.5548e-05
5.9900e+03,5.5618e-05
6.0000e+03,5.5675e-05
6.0100e+03,5.5720e-05
6.0200e+03,5.5756e-05
6.0300e+03,5.5787e-05
6.0400e+03,5.5822e-05
6.0500e+03,5.5868e-05
6.0600e+03,5.5935e-05
6.0700e+03,5.6029e-05
6.0800e+03,5.6154e-05
6.0900e+03,5.6310e-05
6.1000e+03,5.6501e-05
6.1100e+03,5.6729e-05
6.1200e+03,5.6996e-05
6.1300e+03,5.7300e-05
6.1400e+03,5.7629e-05
6.1500e+03,5.7960e-05
6.1600e+03,5.8272e-05
6.1700e+03,5.8547e-05
6.1800e+03,5.8785e-05
6.1900e+03,5.8994e-05
6.2000e+03,5.9186e-05
6.2100e+03,5.9376e-05
6.2200e+03,5.9571e-05
6.2300e+03,5.9775e-05
6.2400e+03,5.9990e-05
6.2500e+03,6.0219e-05
6.2600e+03,6.0465e-05
6.2700e+03,6.0727e-05
6.2800e+03,6.1003e-05
6.2900e+03,6.1284e-05
6.3000e+03,6.1561e-05
6.3100e+03,6.1831e-05
6.3200e+03,6.2095e-05
6.3300e+03,6.2360e-05
6.3400e+03,6.2630e-05
6.3500e+03,6.2903e-05
6.3600e+03,6.3170e-05
6.3700e+03,6.3410e-05
6.3800e+03,6.3603e-05
6.3900e+03,6.3734e-05
6.4000e+03,6.3797e-05
6.4100e+03,6.3798e-05
6.4200e+03,6.3750e-05
6.4300e+03,6.3669e-05
6.4400e+03,6.3570e-05
6.4500e+03,6.3465e-05
6.4600e+03,6.3362e-05
6.4700e+03,6.3268e-05
6.4800e+03,6.3190e-05
6.4900e+03,6.3138e-05
6.5000e+03,6.3121e-05
6.5100e+03,6.3141e-05
6.5200e+03,6.3189e-05
6.5300e+03,6.3244e-05
6.5400e+03,6.3283e-05
6.5500e+03,6.3289e-05
6.5600e+03,6.3249e-05
6.5700e+03,6.3155e-05
6.5800e+03,6.3005e-05
6.5900e+03,6.2804e-05
6.6000e+03,6.2563e-05
6.6100e+03,6.2297e-05
6.6200e+03,6.2023e-05
6.6300e+03,6.1759e-05
6.6400e+03,6.1521e-05
6.6500e+03,6.1324e-05
6.6600e+03,6.1174e-05
6.6700e+03,6.1073e-05
6.6800e+03,6.1015e-05
6.6900e+03,6.0989e-05
6.7000e+03,6.0982e-05
6.7100e+03,6.0980e-05
6.7200e+03,6.0965e-05
6.7300e+03,6.0927e-05
6.7400e+03,6.0856e-05
6.7500e+03,6.0750e-05
6.7600e+03,6.0614e-05
6.7700e+03,6.0465e-05
6.7800e+03,6.0318e-05
6.7900e+03,6.0186e-05
6.8000e+03,6.0071e-05
6.8100e+03,5.9969e-05
6.8200e+03,5.9869e-05
6.8300e+03,5.9755e-05
6.8400e+03,5.9616e-05
6.8500e+03,5.9446e-05
6.8600e+03,5.9246e-05
6.8700e+03,5.9030e-05
6.8800e+03,5.8814e-05
6.8900e+03,5.8609e-05
6.9000e+03,5.8417e-05
6.9100e+03,5.8226e-05
6.9200e+03,5.8021e-05
6.9300e+03,5.7789e-05
6.9400e+03,5.7524e-05
6.9500e+03,5.7230e-05
6.9600e+03,5.6914e-05
6.9700e+03,5.6587e-05
6.9800e+03,5.6265e-05
6.9900e+03,5.5965e-05
7.0000e+03,5.5701e-05
7.0100e+03,5.5479e-05
7.0200e+03,5.5299e-05
7.0300e+03,5.5154e-05
7.0400e+03,5.5033e-05
7.0500e+03,5.4921e-05
7.0600e+03,5.4805e-05
7.0700e+03,5.4674e-05
7.0800e+03,5.4523e-05
7.0900e+03,5.4358e-05
7.1000e+03,5.4200e-05
7.1100e+03,5.4079e-05
7.1200e+03,5.4033e-05
7.1300e+03,5.4095e-05
7.1400e+03,5.4275e-05
7.1500e+03,5.4557e-05
7.1600e+03,5.4899e-05
7.1700e+03,5.5254e-05
7.1800e+03,5.5588e-05
7.1900e+03,5.5894e-05
7.2000e+03,5.6192e-05
7.2100e+03,5.6516e-05
7.2200e+03,5.6892e-05
7.2300e+03,5.7327e-05
7.2400e+03,5.7807e-05
7.2500e+03,5.8305e-05
7.2600e+03,5.8787e-05
7.2700e+03,5.9233e-05
7.2800e+03,5.9632e-05
7.2900e+03,5.9993e-05
7.3000e+03,6.0332e-05
7.3100e+03,6.0664e-05
7.3200e+03,6.0988e-05
7.3300e+03,6.1289e-05
7.3400e+03,6.1539e-05
7.3500e+03,6.1709e-05
7.3600e+03,6.1781e-05
7.3700e+03,6.1753e-05
7.3800e+03,6.1639e-05
7.3900e+03,6.1463e-05
7.4000e+03,6.1248e-05
7.4100e+03,6.1015e-05
7.4200e+03,6.0772e-05
7.4300e+03,6.0517e-05
7.4400e+03,6.0236e-05
7.4500e+03,5.9911e-05
7.4600e+03,5.9525e-05
7.4700e+03,5.9067e-05
7.4800e+03,5.8534e-05
7.4900e+03,5.7928e-05
7.5000e+03,5.7258e-05
7.5100e+03,5.6535e-05
7.5200e+03,5.5778e-05
7.5300e+03,5.5005e-05
7.5400e+03,5.4239e-05
7.5500e+03,5.3499e-05
7.5600e+03,5.2808e-05
7.5700e+03,5.2188e-05
7.5800e+03,5.1653e-05
7.5900e+03,5.1197e-05
7.6000e+03,5.0795e-05
7.6100e+03,5.0409e-05
7.6200e+03,5.0005e-05
7.6300e+03,4.9568e-05
7.6400e+03,4.9097e-05
7.6500e+03,4.8606e-05
7.6600e+03,4.8114e-05
7.6700e+03,4.7649e-05
7.6800e+03,4.7235e-05
7.6900e+03,4.6896e-05
7.7000e+03,4.6647e-05
7.7100e+03,4.6498e-05
7.7200e+03,4.6445e-05
7.7300e+03,4.6468e-05
7.7400e+03,4.6533e-05
7.7500e+03,4.6596e-05
7.7600e+03,4.6615e-05
7.7700e+03,4.6566e-05
7.7800e+03,4.6452e-05
7.7900e+03,4.6300e-05
7.8000e+03,4.6152e-05
7.8100e+03,4.6045e-05
7.8200e+03,4.6002e-05
7.8300e+03,4.6024e-05
7.8400e+03,4.6090e-05
7.8500e+03,4.6173e-05
7.8600e+03,4.6240e-05
7.8700e+03,4.6261e-05
7.8800e+03,4.6222e-05
7.8900e+03,4.6124e-05
7.9000e+03,4.5988e-05
7.9100e+03,4.5839e-05
7.9200e+03,4.5698e-05
7.9300e+03,4.5573e-05
7.9400e+03,4.5465e-05
7.9500e+03,4.5370e-05
7.9600e+03,4.5291e-05
7.9700e+03,4.5235e-05
7.9800e+03,4.5207e-05
7.9900e+03,4.5212e-05
8.0000e+03,4.5245e-05
8.0100e+03,4.5295e-05
8.0200e+03,4.5349e-05
8.0300e+03,4.5395e-05
8.0400e+03,4.5429e-05
8.0500e+03,4.5451e-05
8.0600e+03,4.5465e-05
8.0700e+03,4.5471e-05
8.0800e+03,4.5468e-05
8.0900e+03,4.5445e-05
8.1000e+03,4.5394e-05
8.1100e+03,4.5308e-05
8.1200e+03,4.5182e-05
8.1300e+03,4.5017e-05
8.1400e+03,4.4816e-05
8.1500e+03,4.4585e-05
8.1600e+03,4.4325e-05
8.1700e+03,4.4033e-05
8.1800e+03,4.3707e-05
8.1900e+03,4.3352e-05
8.2000e+03,4.2983e-05
8.2100e+03,4.2618e-05
8.2200e+03,4.2276e-05
8.2300e+03,4.1965e-05
8.2400e+03,4.1679e-05
8.2500e+03,4.1416e-05
8.2600e+03,4.1177e-05
8.2700e+03,4.0979e-05
8.2800e+03,4.0844e-05
8.2900e+03,4.0791e-05
8.3000e+03,4.0826e-05
8.3100e+03,4.0945e-05
8.3200e+03,4.1128e-05
8.3300e+03,4.1350e-05
8.3400e+03,4.1576e-05
8.3500e+03,4.1776e-05
8.3600e+03,4.1926e-05
8.3700e+03,4.2017e-05
8.3800e+03,4.2054e-05
8.3900e+03,4.2049e-05
8.4000e+03,4.2016e-05
8.4100e+03,4.1962e-05
8.4200e+03,4.1884e-05
8.4300e+03,4.1781e-05
8.4400e+03,4.1653e-05
8.4500e+03,4.1509e-05
8.4600e+03,4.1365e-05
8.4700e+03,4.1237e-05
8.4800e+03,4.1134e-05
8.4900e+03,4.1058e-05
8.5000e+03,4.1004e-05
8.5100e+03,4.0965e-05
8.5200e+03,4.0937e-05
8.5300e+03,4.0915e-05
8.5400e+03,4.0896e-05
8.5500e+03,4.0879e-05
8.5600e+03,4.0859e-05
8.5700e+03,4.0831e-05
8.5800e+03,4.0789e-05
8.5900e+03,4.0723e-05
8.6000e+03,4.0632e-05
8.6100e+03,4.0517e-05
8.6200e+03,4.0385e-05
8.6300e+03,4.0249e-05
8.6400e+03,4.0121e-05
8.6500e+03,4.0011e-05
8.6600e+03,3.9924e-05
8.6700e+03,3.9859e-05
8.6800e+03,3.9813e-05
8.6900e+03,3.9775e-05
8.7000e+03,3.9733e-05
8.7100e+03,3.9676e-05
8.7200e+03,3.9599e-05
8.7300e+03,3.9504e-05
8.7400e+03,3.9397e-05
8.7500e+03,3.9284e-05
8.7600e+03,3.9170e-05
8.7700e+03,3.9056e-05
8.7800e+03,3.8939e-05
8.7900e+03,3.8809e-05
8.8000e+03,3.8650e-05
8.8100e+03,3.8448e-05
8.8200e+03,3.8189e-05
8.8300e+03,3.7870e-05
8.8400e+03,3.7499e-05
8.8500e+03,3.7093e-05
8.8600e+03,3.6675e-05
8.8700e+03,3.6270e-05
8.8800e+03,3.5898e-05
8.8900e+03,3.5572e-05
8.9000e+03,3.5299e-05
8.9100e+03,3.5085e-05
8.9200e+03,3.4927e-05
8.9300e+03,3.4810e-05
8.9400e+03,3.4717e-05
8.9500e+03,3.4632e-05
8.9600e+03,3.4552e-05
8.9700e+03,3.4483e-05
8.9800e+03,3.4428e-05
8.9900e+03,3.4379e-05
9.0000e+03,3.4331e-05
9.0100e+03,3.4288e-05
9.0200e+03,3.4266e-05
9.0300e+03,3.4289e-05
9.0400e+03,3.4376e-05
9.0500e+03,3.4541e-05
9.0600e+03,3.4787e-05
9.0700e+03,3.5116e-05
