# Time , Side-Flux
0.0000e+00,0.0000e+00
1.0000e+01,4.1442e-05
2.0000e+01,7.6289e-05
3.0000e+01,1.0198e-04
4.0000e+01,1.1945e-04
5.0000e+01,1.3083e-04
6.0000e+01,1.3808e-04
7.0000e+01,1.4264e-04
8.0000e+01,1.4551e-04
9.0000e+01,1.4731e-04
1.0000e+02,1.4845e-04
1.1000e+02,1.4919e-04
1.2000e+02,1.4967e-04
1.3000e+02,1.5000e-04
1.4000e+02,1.5023e-04
1.5000e+02,1.5040e-04
1.6000e+02,1.5053e-04
1.7000e+02,1.5062e-04
1.8000e+02,1.5070e-04
1.9000e+02,1.5076e-04
2.0000e+02,1.5081e-04
2.1000e+02,1.5086e-04
2.2000e+02,1.5089e-04
2.3000e+02,1.5092e-04
2.4000e+02,1.5095e-04
2.5000e+02,1.5096e-04
2.6000e+02,1.5098e-04
2.7000e+02,1.5099e-04
2.8000e+02,1.5100e-04
2.9000e+02,1.5101e-04
3.0000e+02,1.5101e-04
3.1000e+02,1.5102e-04
3.2000e+02,1.5103e-04
3.3000e+02,1.5104e-04
3.4000e+02,1.5104e-04
3.5000e+02,1.5104e-04
3.6000e+02,1.5103e-04
3.7000e+02,1.5103e-04
3.8000e+02,1.5102e-04
3.9000e+02,1.5101e-04
4.0000e+02,1.5099e-04
4.1000e+02,1.5095e-04
4.2000e+02,1.5090e-04
4.3000e+02,1.5084e-04
4.4000e+02,1.5078e-04
4.5000e+02,1.5074e-04
4.6000e+02,1.5071e-04
4.7000e+02,1.5069e-04
4.8000e+02,1.5068e-04
4.9000e+02,1.5067e-04
5.0000e+02,1.5067e-04
5.1000e+02,1.5067e-04
5.2000e+02,1.5067e-04
5.3000e+02,1.5066e-04
5.4000e+02,1.5066e-04
5.5000e+02,1.5066e-04
5.6000e+02,1.5067e-04
5.7000e+02,1.5067e-04
5.8000e+02,1.5066e-04
5.9000e+02,1.5063e-04
6.0000e+02,1.5057e-04
6.1000e+02,1.5046e-04
6.2000e+02,1.5032e-04
6.3000e+02,1.5016e-04
6.4000e+02,1.4998e-04
6.5000e+02,1.4975e-04
6.6000e+02,1.4943e-04
6.7000e+02,1.4903e-04
6.8000e+02,1.4859e-04
6.9000e+02,1.4820e-04
7.0000e+02,1.4790e-04
7.1000e+02,1.4767e-04
7.2000e+02,1.4745e-04
7.3000e+02,1.4719e-04
7.4000e+02,1.4689e-04
7.5000e+02,1.4660e-04
7.6000e+02,1.4637e-04
7.7000e+02,1.4625e-04
7.8000e+02,1.4624e-04
7.9000e+02,1.4630e-04
8.0000e+02,1.4639e-04
8.1000e+02,1.4642e-04
8.2000e+02,1.4634e-04
8.3000e+02,1.4616e-04
8.4000e+02,1.4592e-04
8.5000e+02,1.4570e-04
8.6000e+02,1.4557e-04
8.7000e+02,1.4553e-04
8.8000e+02,1.4555e-04
8.9000e+02,1.4560e-04
9.0000e+02,1.4566e-04
9.1000e+02,1.4567e-04
9.2000e+02,1.4558e-04
9.3000e+02,1.4533e-04
9.4000e+02,1.4493e-04
9.5000e+02,1.4441e-04
9.6000e+02,1.4381e-04
9.7000e+02,1.4316e-04
9.8000e+02,1.4253e-04
9.9000e+02,1.4199e-04
1.0000e+03,1.4161e-04
1.0100e+03,1.4142e-04
1.0200e+03,1.4138e-04
1.0300e+03,1.4140e-04
1.0400e+03,1.4134e-04
1.0500e+03,1.4116e-04
1.0600e+03,1.4084e-04
1.0700e+03,1.4037e-04
1.0800e+03,1.3978e-04
1.0900e+03,1.3906e-04
1.1000e+03,1.3823e-04
1.1100e+03,1.3741e-04
1.1200e+03,1.3669e-04
1.1300e+03,1.3615e-04
1.1400e+03,1.3577e-04
1.1500e+03,1.3552e-04
1.1600e+03,1.3539e-04
1.1700e+03,1.3533e-04
1.1800e+03,1.3530e-04
1.1900e+03,1.3526e-04
1.2000e+03,1.3519e-04
1.2100e+03,1.3510e-04
1.2200e+03,1.3497e-04
1.2300e+03,1.3481e-04
1.2400e+03,1.3460e-04
1.2500e+03,1.3435e-04
1.2600e+03,1.3407e-04
1.2700e+03,1.3382e-04
1.2800e+03,1.3365e-04
1.2900e+03,1.3356e-04
1.3000e+03,1.3354e-04
1.3100e+03,1.3357e-04
1.3200e+03,1.3361e-04
1.3300e+03,1.3365e-04
1.3400e+03,1.3366e-04
1.3500e+03,1.3361e-04
1.3600e+03,1.3346e-04
1.3700e+03,1.3324e-04
1.3800e+03,1.3298e-04
1.3900e+03,1.3274e-04
1.4000e+03,1.3252e-04
1.4100e+03,1.3234e-04
1.4200e+03,1.3220e-04
1.4300e+03,1.3208e-04
1.4400e+03,1.3198e-04
1.4500e+03,1.3190e-04
1.4600e+03,1.3185e-04
1.4700e+03,1.3181e-04
1.4800e+03,1.3179e-04
1.4900e+03,1.3177e-04
1.5000e+03,1.3176e-04
1.5100e+03,1.3175e-04
1.5200e+03,1.3173e-04
1.5300e+03,1.3172e-04
1.5400e+03,1.3170e-04
1.5500e+03,1.3168e-04
1.5600e+03,1.3166e-04
1.5700e+03,1.3164e-04
1.5800e+03,1.3162e-04
1.5900e+03,1.3160e-04
1.6000e+03,1.3160e-04
1.6100e+03,1.3160e-04
1.6200e+03,1.3158e-04
1.6300e+03,1.3152e-04
1.6400e+03,1.3142e-04
1.6500e+03,1.3127e-04
1.6600e+03,1.3110e-04
1.6700e+03,1.3095e-04
1.6800e+03,1.3084e-04
1.6900e+03,1.3079e-04
1.7000e+03,1.3080e-04
1.7100e+03,1.3083e-04
1.7200e+03,1.3084e-04
1.7300e+03,1.3082e-04
1.7400e+03,1.3078e-04
1.7500e+03,1.3072e-04
1.7600e+03,1.3066e-04
1.7700e+03,1.3062e-04
1.7800e+03,1.3061e-04
1.7900e+03,1.3062e-04
1.8000e+03,1.3065e-04
1.8100e+03,1.3066e-04
1.8200e+03,1.3063e-04
1.8300e+03,1.3052e-04
1.8400e+03,1.3033e-04
1.8500e+03,1.3006e-04
1.8600e+03,1.2975e-04
1.8700e+03,1.2945e-04
1.8800e+03,1.2919e-04
1.8900e+03,1.2898e-04
1.9000e+03,1.2881e-04
1.9100e+03,1.2865e-04
1.9200e+03,1.2849e-04
1.9300e+03,1.2832e-04
1.9400e+03,1.2812e-04
1.9500e+03,1.2788e-04
1.9600e+03,1.2762e-04
1.9700e+03,1.2737e-04
1.9800e+03,1.2714e-04
1.9900e+03,1.2694e-04
2.0000e+03,1.2676e-04
2.0100e+03,1.2660e-04
2.0200e+03,1.2644e-04
2.0300e+03,1.2629e-04
2.0400e+03,1.2617e-04
2.0500e+03,1.2610e-04
2.0600e+03,1.2605e-04
2.0700e+03,1.2602e-04
2.0800e+03,1.2600e-04
2.0900e+03,1.2600e-04
2.1000e+03,1.2597e-04
2.1100e+03,1.2593e-04
2.1200e+03,1.2586e-04
2.1300e+03,1.2580e-04
2.1400e+03,1.2570e-04
2.1500e+03,1.2554e-04
2.1600e+03,1.2529e-04
2.1700e+03,1.2498e-04
2.1800e+03,1.2462e-04
2.1900e+03,1.2421e-04
2.2000e+03,1.2377e-04
2.2100e+03,1.2335e-04
2.2200e+03,1.2298e-04
2.2300e+03,1.2266e-04
2.2400e+03,1.2239e-04
2.2500e+03,1.2214e-04
2.2600e+03,1.2188e-04
2.2700e+03,1.2158e-04
2.2800e+03,1.2127e-04
2.2900e+03,1.2101e-04
2.3000e+03,1.2081e-04
2.3100e+03,1.2066e-04
2.3200e+03,1.2050e-04
2.3300e+03,1.2035e-04
2.3400e+03,1.2020e-04
2.3500e+03,1.2007e-04
2.3600e+03,1.1997e-04
2.3700e+03,1.1992e-04
2.3800e+03,1.1989e-04
2.3900e+03,1.1987e-04
2.4000e+03,1.1984e-04
2.4100e+03,1.1983e-04
2.4200e+03,1.1983e-04
2.4300e+03,1.1983e-04
2.4400e+03,1.1981e-04
2.4500e+03,1.1978e-04
2.4600e+03,1.1976e-04
2.4700e+03,1.1975e-04
2.4800e+03,1.1974e-04
2.4900e+03,1.1972e-04
2.5000e+03,1.1971e-04
2.5100e+03,1.1969e-04
2.5200e+03,1.1967e-04
2.5300e+03,1.1965e-04
2.5400e+03,1.1963e-04
2.5500e+03,1.1960e-04
2.5600e+03,1.1955e-04
2.5700e+03,1.1948e-04
2.5800e+03,1.1939e-04
2.5900e+03,1.1929e-04
2.6000e+03,1.1919e-04
2.6100e+03,1.1908e-04
2.6200e+03,1.1899e-04
2.6300e+03,1.1891e-04
2.6400e+03,1.1886e-04
2.6500e+03,1.1882e-04
2.6600e+03,1.1878e-04
2.6700e+03,1.1874e-04
2.6800e+03,1.1866e-04
2.6900e+03,1.1856e-04
2.7000e+03,1.1844e-04
2.7100e+03,1.1834e-04
2.7200e+03,1.1823e-04
2.7300e+03,1.1807e-04
2.7400e+03,1.1783e-04
2.7500e+03,1.1754e-04
2.7600e+03,1.1725e-04
2.7700e+03,1.1700e-04
2.7800e+03,1.1681e-04
2.7900e+03,1.1668e-04
2.8000e+03,1.1659e-04
2.8100e+03,1.1652e-04
2.8200e+03,1.1646e-04
2.8300e+03,1.1639e-04
2.8400e+03,1.1632e-04
2.8500e+03,1.1624e-04
2.8600e+03,1.1619e-04
2.8700e+03,1.1617e-04
2.8800e+03,1.1619e-04
2.8900e+03,1.1623e-04
2.9000e+03,1.1623e-04
2.9100e+03,1.1611e-04
2.9200e+03,1.1582e-04
2.9300e+03,1.1533e-04
2.9400e+03,1.1472e-04
2.9500e+03,1.1410e-04
2.9600e+03,1.1362e-04
2.9700e+03,1.1334e-04
2.9800e+03,1.1329e-04
2.9900e+03,1.1341e-04
3.0000e+03,1.1358e-04
3.0100e+03,1.1370e-04
3.0200e+03,1.1368e-04
3.0300e+03,1.1356e-04
3.0400e+03,1.1336e-04
3.0500e+03,1.1312e-04
3.0600e+03,1.1287e-04
3.0700e+03,1.1267e-04
3.0800e+03,1.1259e-04
3.0900e+03,1.1263e-04
3.1000e+03,1.1272e-04
3.1100e+03,1.1273e-04
3.1200e+03,1.1258e-04
3.1300e+03,1.1225e-04
3.1400e+03,1.1180e-04
3.1500e+03,1.1130e-04
3.1600e+03,1.1081e-04
3.1700e+03,1.1030e-04
3.1800e+03,1.0978e-04
3.1900e+03,1.0929e-04
3.2000e+03,1.0888e-04
3.2100e+03,1.0858e-04
3.2200e+03,1.0837e-04
3.2300e+03,1.0825e-04
3.2400e+03,1.0822e-04
3.2500e+03,1.0827e-04
3.2600e+03,1.0838e-04
3.2700e+03,1.0851e-04
3.2800e+03,1.0861e-04
3.2900e+03,1.0867e-04
3.3000e+03,1.0866e-04
3.3100e+03,1.0859e-04
3.3200e+03,1.0847e-04
3.3300e+03,1.0830e-04
3.3400e+03,1.0809e-04
3.3500e+03,1.0785e-04
3.3600e+03,1.0758e-04
3.3700e+03,1.0730e-04
3.3800e+03,1.0703e-04
3.3900e+03,1.0678e-04
3.4000e+03,1.0655e-04
3.4100e+03,1.0635e-04
3.4200e+03,1.0616e-04
3.4300e+03,1.0596e-04
3.4400e+03,1.0576e-04
3.4500e+03,1.0556e-04
3.4600e+03,1.0538e-04
3.4700e+03,1.0527e-04
3.4800e+03,1.0525e-04
3.4900e+03,1.0526e-04
3.5000e+03,1.0526e-04
3.5100e+03,1.0519e-04
3.5200e+03,1.0507e-04
3.5300e+03,1.0495e-04
3.5400e+03,1.0484e-04
3.5500e+03,1.0476e-04
3.5600e+03,1.0469e-04
3.5700e+03,1.0465e-04
3.5800e+03,1.0462e-04
3.5900e+03,1.0460e-04
3.6000e+03,1.0458e-04
3.6100e+03,1.0457e-04
3.6200e+03,1.0456e-04
3.6300e+03,1.0454e-04
3.6400e+03,1.0451e-04
3.6500e+03,1.0447e-04
3.6600e+03,1.0440e-04
3.6700e+03,1.0431e-04
3.6800e+03,1.0420e-04
3.6900e+03,1.0407e-04
3.7000e+03,1.0396e-04
3.7100e+03,1.0387e-04
3.7200e+03,1.0379e-04
3.7300e+03,1.0368e-04
3.7400e+03,1.0353e-04
3.7500e+03,1.0332e-04
3.7600e+03,1.0305e-04
3.7700e+03,1.0278e-04
3.7800e+03,1.0256e-04
3.7900e+03,1.0241e-04
3.8000e+03,1.0233e-04
3.8100e+03,1.0230e-04
3.8200e+03,1.0232e-04
3.8300e+03,1.0237e-04
3.8400e+03,1.0243e-04
3.8500e+03,1.0247e-04
3.8600e+03,1.0251e-04
3.8700e+03,1.0255e-04
3.8800e+03,1.0264e-04
3.8900e+03,1.0276e-04
3.9000e+03,1.0287e-04
3.9100e+03,1.0286e-04
3.9200e+03,1.0267e-04
3.9300e+03,1.0225e-04
3.9400e+03,1.0160e-04
3.9500e+03,1.0076e-04
3.9600e+03,9.9799e-05
3.9700e+03,9.8800e-05
3.9800e+03,9.7896e-05
3.9900e+03,9.7228e-05
4.0000e+03,9.6862e-05
4.0100e+03,9.6750e-05
4.0200e+03,9.6795e-05
4.0300e+03,9.6913e-05
4.0400e+03,9.7055e-05
4.0500e+03,9.7176e-05
4.0600e+03,9.7219e-05
4.0700e+03,9.7140e-05
4.0800e+03,9.6918e-05
4.0900e+03,9.6535e-05
4.1000e+03,9.5996e-05
4.1100e+03,9.5390e-05
4.1200e+03,9.4886e-05
4.1300e+03,9.4614e-05
4.1400e+03,9.4561e-05
4.1500e+03,9.4635e-05
4.1600e+03,9.4761e-05
4.1700e+03,9.4899e-05
4.1800e+03,9.5024e-05
4.1900e+03,9.5112e-05
4.2000e+03,9.5145e-05
4.2100e+03,9.5122e-05
4.2200e+03,9.5056e-05
4.2300e+03,9.4955e-05
4.2400e+03,9.4829e-05
4.2500e+03,9.4690e-05
4.2600e+03,9.4557e-05
4.2700e+03,9.4447e-05
4.2800e+03,9.4371e-05
4.2900e+03,9.4327e-05
4.3000e+03,9.4301e-05
4.3100e+03,9.4279e-05
4.3200e+03,9.4249e-05
4.3300e+03,9.4208e-05
4.3400e+03,9.4161e-05
4.3500e+03,9.4114e-05
4.3600e+03,9.4079e-05
4.3700e+03,9.4070e-05
4.3800e+03,9.4090e-05
4.3900e+03,9.4135e-05
4.4000e+03,9.4205e-05
4.4100e+03,9.4308e-05
4.4200e+03,9.4434e-05
4.4300e+03,9.4541e-05
4.4400e+03,9.4581e-05
4.4500e+03,9.4540e-05
4.4600e+03,9.4446e-05
4.4700e+03,9.4341e-05
4.4800e+03,9.4244e-05
4.4900e+03,9.4150e-05
4.5000e+03,9.4053e-05
4.5100e+03,9.3962e-05
4.5200e+03,9.3899e-05
4.5300e+03,9.3881e-05
4.5400e+03,9.3906e-05
4.5500e+03,9.3959e-05
4.5600e+03,9.4016e-05
4.5700e+03,9.4062e-05
4.5800e+03,9.4088e-05
4.5900e+03,9.4092e-05
4.6000e+03,9.4075e-05
4.6100e+03,9.4052e-05
4.6200e+03,9.4047e-05
4.6300e+03,9.4073e-05
4.6400e+03,9.4125e-05
4.6500e+03,9.4191e-05
4.6600e+03,9.4263e-05
4.6700e+03,9.4334e-05
4.6800e+03,9.4394e-05
4.6900e+03,9.4419e-05
4.7000e+03,9.4381e-05
4.7100e+03,9.4263e-05
4.7200e+03,9.4066e-05
4.7300e+03,9.3809e-05
4.7400e+03,9.3519e-05
4.7500e+03,9.3215e-05
4.7600e+03,9.2896e-05
4.7700e+03,9.2545e-05
4.7800e+03,9.2139e-05
4.7900e+03,9.1669e-05
4.8000e+03,9.1145e-05
4.8100e+03,9.0604e-05
4.8200e+03,9.0096e-05
4.8300e+03,8.9664e-05
4.8400e+03,8.9314e-05
4.8500e+03,8.9015e-05
4.8600e+03,8.8727e-05
4.8700e+03,8.8429e-05
4.8800e+03,8.8129e-05
4.8900e+03,8.7854e-05
4.9000e+03,8.7630e-05
4.9100e+03,8.7456e-05
4.9200e+03,8.7299e-05
4.9300e+03,8.7125e-05
4.9400e+03,8.6929e-05
4.9500e+03,8.6747e-05
4.9600e+03,8.6617e-05
4.9700e+03,8.6541e-05
4.9800e+03,8.6517e-05
4.9900e+03,8.6558e-05
5.0000e+03,8.6688e-05
5.0100e+03,8.6914e-05
5.0200e+03,8.7223e-05
5.0300e+03,8.7602e-05
5.0400e+03,8.8022e-05
5.0500e+03,8.8429e-05
5.0600e+03,8.8785e-05
5.0700e+03,8.9131e-05
5.0800e+03,8.9593e-05
5.0900e+03,9.0298e-05
5.1000e+03,9.1238e-05
5.1100e+03,9.2256e-05
5.1200e+03,9.3163e-05
5.1300e+03,9.3840e-05
5.1400e+03,9.4289e-05
5.1500e+03,9.4577e-05
5.1600e+03,9.4759e-05
5.1700e+03,9.4845e-05
5.1800e+03,9.4820e-05
5.1900e+03,9.4664e-05
5.2000e+03,9.4385e-05
5.2100e+03,9.4014e-05
5.2200e+03,9.3600e-05
5.2300e+03,9.3207e-05
5.2400e+03,9.2885e-05
5.2500e+03,9.2627e-05
5.2600e+03,9.2391e-05
5.2700e+03,9.2146e-05
5.2800e+03,9.1874e-05
5.2900e+03,9.1542e-05
5.3000e+03,9.1127e-05
5.3100e+03,9.0651e-05
5.3200e+03,9.0172e-05
5.3300e+03,8.9734e-05
5.3400e+03,8.9337e-05
5.3500e+03,8.8964e-05
5.3600e+03,8.8613e-05
5.3700e+03,8.8296e-05
5.3800e+03,8.8014e-05
5.3900e+03,8.7753e-05
5.4000e+03,8.7498e-05
5.4100e+03,8.7241e-05
5.4200e+03,8.6985e-05
5.4300e+03,8.6745e-05
5.4400e+03,8.6535e-05
5.4500e+03,8.6372e-05
5.4600e+03,8.6268e-05
5.4700e+03,8.6218e-05
5.4800e+03,8.6203e-05
5.4900e+03,8.6200e-05
5.5000e+03,8.6198e-05
5.5100e+03,8.6204e-05
5.5200e+03,8.6225e-05
5.5300e+03,8.6268e-05
5.5400e+03,8.6332e-05
5.5500e+03,8.6406e-05
5.5600e+03,8.6472e-05
5.5700e+03,8.6512e-05
5.5800e+03,8.6505e-05
5.5900e+03,8.6449e-05
5.6000e+03,8.6361e-05
5.6100e+03,8.6264e-05
5.6200e+03,8.6172e-05
5.6300e+03,8.6089e-05
5.6400e+03,8.6011e-05
5.6500e+03,8.5930e-05
5.6600e+03,8.5836e-05
5.6700e+03,8.5728e-05
5.6800e+03,8.5610e-05
5.6900e+03,8.5500e-05
5.7000e+03,8.5415e-05
5.7100e+03,8.5360e-05
5.7200e+03,8.5319e-05
5.7300e+03,8.5270e-05
5.7400e+03,8.5198e-05
5.7500e+03,8.5101e-05
5.7600e+03,8.4985e-05
5.7700e+03,8.4866e-05
5.7800e+03,8.4762e-05
5.7900e+03,8.4686e-05
5.8000e+03,8.4636e-05
5.8100e+03,8.4590e-05
5.8200e+03,8.4526e-05
5.8300e+03,8.4438e-05
5.8400e+03,8.4339e-05
5.8500e+03,8.4246e-05
5.8600e+03,8.4166e-05
5.8700e+03,8.4096e-05
5.8800e+03,8.4027e-05
5.8900e+03,8.3952e-05
5.9000e+03,8.3864e-05
5.9100e+03,8.3766e-05
5.9200e+03,8.3670e-05
5.9300e+03,8.3583e-05
5.9400e+03,8.3500e-05
5.9500e+03,8.3405e-05
5.9600e+03,8.3287e-05
5.9700e+03,8.3151e-05
5.9800e+03,8.3010e-05
5.9900e+03,8.2885e-05
6.0000e+03,8.2790e-05
6.0100e+03,8.2731e-05
6.0200e+03,8.2685e-05
6.0300e+03,8.2619e-05
6.0400e+03,8.2501e-05
6.0500e+03,8.2314e-05
6.0600e+03,8.2050e-05
6.0700e+03,8.1720e-05
6.0800e+03,8.1338e-05
6.0900e+03,8.0905e-05
6.1000e+03,8.0418e-05
6.1100e+03,7.9871e-05
6.1200e+03,7.9238e-05
6.1300e+03,7.8463e-05
6.1400e+03,7.7480e-05
6.1500e+03,7.6250e-05
6.1600e+03,7.4799e-05
6.1700e+03,7.3214e-05
6.1800e+03,7.1598e-05
6.1900e+03,7.0064e-05
6.2000e+03,6.8738e-05
6.2100e+03,6.7694e-05
6.2200e+03,6.6901e-05
6.2300e+03,6.6260e-05
6.2400e+03,6.5683e-05
6.2500e+03,6.5128e-05
6.2600e+03,6.4547e-05
6.2700e+03,6.3881e-05
6.2800e+03,6.3108e-05
6.2900e+03,6.2269e-05
6.3000e+03,6.1442e-05
6.3100e+03,6.0694e-05
6.3200e+03,6.0055e-05
6.3300e+03,5.9523e-05
6.3400e+03,5.9091e-05
6.3500e+03,5.8755e-05
6.3600e+03,5.8510e-05
6.3700e+03,5.8344e-05
6.3800e+03,5.8226e-05
6.3900e+03,5.8121e-05
6.4000e+03,5.8000e-05
6.4100e+03,5.7850e-05
6.4200e+03,5.7672e-05
6.4300e+03,5.7474e-05
6.4400e+03,5.7273e-05
6.4500e+03,5.7090e-05
6.4600e+03,5.6952e-05
6.4700e+03,5.6881e-05
6.4800e+03,5.6890e-05
6.4900e+03,5.6978e-05
6.5000e+03,5.7137e-05
6.5100e+03,5.7369e-05
6.5200e+03,5.7697e-05
6.5300e+03,5.8155e-05
6.5400e+03,5.8740e-05
6.5500e+03,5.9416e-05
6.5600e+03,6.0133e-05
6.5700e+03,6.0833e-05
6.5800e+03,6.1457e-05
6.5900e+03,6.1963e-05
6.6000e+03,6.2330e-05
6.6100e+03,6.2565e-05
6.6200e+03,6.2701e-05
6.6300e+03,6.2771e-05
6.6400e+03,6.2781e-05
6.6500e+03,6.2736e-05
6.6600e+03,6.2647e-05
6.6700e+03,6.2531e-05
6.6800e+03,6.2408e-05
6.6900e+03,6.2290e-05
6.7000e+03,6.2183e-05
6.7100e+03,6.2093e-05
6.7200e+03,6.2026e-05
6.7300e+03,6.1988e-05
6.7400e+03,6.1977e-05
6.7500e+03,6.1981e-05
6.7600e+03,6.1988e-05
6.7700e+03,6.1995e-05
6.7800e+03,6.2012e-05
6.7900e+03,6.2054e-05
6.8000e+03,6.2125e-05
6.8100e+03,6.2212e-05
6.8200e+03,6.2295e-05
6.8300e+03,6.2335e-05
6.8400e+03,6.2297e-05
6.8500e+03,6.2169e-05
6.8600e+03,6.1962e-05
6.8700e+03,6.1690e-05
6.8800e+03,6.1356e-05
6.8900e+03,6.0979e-05
6.9000e+03,6.0613e-05
6.9100e+03,6.0314e-05
6.9200e+03,6.0096e-05
6.9300e+03,5.9938e-05
6.9400e+03,5.9816e-05
6.9500e+03,5.9718e-05
6.9600e+03,5.9648e-05
6.9700e+03,5.9633e-05
6.9800e+03,5.9712e-05
6.9900e+03,5.9913e-05
7.0000e+03,6.0231e-05
7.0100e+03,6.0640e-05
7.0200e+03,6.1117e-05
7.0300e+03,6.1645e-05
7.0400e+03,6.2196e-05
7.0500e+03,6.2728e-05
7.0600e+03,6.3170e-05
7.0700e+03,6.3460e-05
7.0800e+03,6.3588e-05
7.0900e+03,6.3597e-05
7.1000e+03,6.3545e-05
7.1100e+03,6.3500e-05
7.1200e+03,6.3548e-05
7.1300e+03,6.3768e-05
7.1400e+03,6.4198e-05
7.1500e+03,6.4810e-05
7.1600e+03,6.5531e-05
7.1700e+03,6.6257e-05
7.1800e+03,6.6855e-05
7.1900e+03,6.7210e-05
7.2000e+03,6.7320e-05
7.2100e+03,6.7331e-05
7.2200e+03,6.7432e-05
7.2300e+03,6.7726e-05
7.2400e+03,6.8215e-05
7.2500e+03,6.8838e-05
7.2600e+03,6.9510e-05
7.2700e+03,7.0129e-05
7.2800e+03,7.0595e-05
7.2900e+03,7.0852e-05
7.3000e+03,7.0908e-05
7.3100e+03,7.0824e-05
7.3200e+03,7.0692e-05
7.3300e+03,7.0589e-05
7.3400e+03,7.0542e-05
7.3500e+03,7.0540e-05
7.3600e+03,7.0570e-05
7.3700e+03,7.0623e-05
7.3800e+03,7.0685e-05
7.3900e+03,7.0734e-05
7.4000e+03,7.0750e-05
7.4100e+03,7.0722e-05
7.4200e+03,7.0643e-05
7.4300e+03,7.0499e-05
7.4400e+03,7.0282e-05
7.4500e+03,6.9995e-05
7.4600e+03,6.9645e-05
7.4700e+03,6.9254e-05
7.4800e+03,6.8867e-05
7.4900e+03,6.8560e-05
7.5000e+03,6.8419e-05
7.5100e+03,6.8476e-05
7.5200e+03,6.8664e-05
7.5300e+03,6.8860e-05
7.5400e+03,6.8985e-05
7.5500e+03,6.9076e-05
7.5600e+03,6.9248e-05
7.5700e+03,6.9555e-05
7.5800e+03,6.9909e-05
7.5900e+03,7.0153e-05
7.6000e+03,7.0210e-05
7.6100e+03,7.0124e-05
7.6200e+03,6.9998e-05
7.6300e+03,6.9917e-05
7.6400e+03,6.9936e-05
7.6500e+03,7.0073e-05
7.6600e+03,7.0294e-05
7.6700e+03,7.0539e-05
7.6800e+03,7.0755e-05
7.6900e+03,7.0931e-05
7.7000e+03,7.1080e-05
7.7100e+03,7.1216e-05
7.7200e+03,7.1346e-05
7.7300e+03,7.1467e-05
7.7400e+03,7.1570e-05
7.7500e+03,7.1641e-05
7.7600e+03,7.1668e-05
7.7700e+03,7.1644e-05
7.7800e+03,7.1576e-05
7.7900e+03,7.1482e-05
7.8000e+03,7.1381e-05
7.8100e+03,7.1291e-05
7.8200e+03,7.1224e-05
7.8300e+03,7.1192e-05
7.8400e+03,7.1215e-05
7.8500e+03,7.1306e-05
7.8600e+03,7.1457e-05
7.8700e+03,7.1641e-05
7.8800e+03,7.1823e-05
7.8900e+03,7.1973e-05
7.9000e+03,7.2074e-05
7.9100e+03,7.2126e-05
7.9200e+03,7.2142e-05
7.9300e+03,7.2146e-05
7.9400e+03,7.2165e-05
7.9500e+03,7.2212e-05
7.9600e+03,7.2290e-05
7.9700e+03,7.2392e-05
7.9800e+03,7.2516e-05
7.9900e+03,7.2677e-05
8.0000e+03,7.2895e-05
8.0100e+03,7.3175e-05
8.0200e+03,7.3504e-05
8.0300e+03,7.3855e-05
8.0400e+03,7.4188e-05
8.0500e+03,7.4452e-05
8.0600e+03,7.4598e-05
8.0700e+03,7.4592e-05
8.0800e+03,7.4424e-05
8.0900e+03,7.4105e-05
8.1000e+03,7.3644e-05
8.1100e+03,7.3043e-05
8.1200e+03,7.2309e-05
8.1300e+03,7.1470e-05
8.1400e+03,7.0574e-05
8.1500e+03,6.9681e-05
8.1600e+03,6.8842e-05
8.1700e+03,6.8084e-05
8.1800e+03,6.7417e-05
8.1900e+03,6.6857e-05
8.2000e+03,6.6398e-05
8.2100e+03,6.5964e-05
8.2200e+03,6.5448e-05
8.2300e+03,6.4802e-05
8.2400e+03,6.4077e-05
8.2500e+03,6.3365e-05
8.2600e+03,6.2735e-05
8.2700e+03,6.2223e-05
8.2800e+03,6.1834e-05
8.2900e+03,6.1569e-05
8.3000e+03,6.1419e-05
8.3100e+03,6.1357e-05
8.3200e+03,6.1354e-05
8.3300e+03,6.1387e-05
8.3400e+03,6.1431e-05
8.3500e+03,6.1461e-05
8.3600e+03,6.1477e-05
8.3700e+03,6.1500e-05
8.3800e+03,6.1550e-05
8.3900e+03,6.1627e-05
8.4000e+03,6.1710e-05
8.4100e+03,6.1772e-05
8.4200e+03,6.1803e-05
8.4300e+03,6.1814e-05
8.4400e+03,6.1832e-05
8.4500e+03,6.1881e-05
8.4600e+03,6.1979e-05
8.4700e+03,6.2122e-05
8.4800e+03,6.2292e-05
8.4900e+03,6.2475e-05
8.5000e+03,6.2663e-05
8.5100e+03,6.2851e-05
8.5200e+03,6.3025e-05
8.5300e+03,6.3165e-05
8.5400e+03,6.3253e-05
8.5500e+03,6.3278e-05
8.5600e+03,6.3243e-05
8.5700e+03,6.3166e-05
8.5800e+03,6.3063e-05
8.5900e+03,6.2931e-05
8.6000e+03,6.2742e-05
8.6100e+03,6.2470e-05
8.6200e+03,6.2123e-05
8.6300e+03,6.1743e-05
8.6400e+03,6.1380e-05
8.6500e+03,6.1079e-05
8.6600e+03,6.0879e-05
8.6700e+03,6.0791e-05
8.6800e+03,6.0800e-05
8.6900e+03,6.0884e-05
8.7000e+03,6.1032e-05
8.7100e+03,6.1231e-05
8.7200e+03,6.1467e-05
8.7300e+03,6.1730e-05
8.7400e+03,6.1995e-05
8.7500e+03,6.2239e-05
8.7600e+03,6.2448e-05
8.7700e+03,6.2618e-05
8.7800e+03,6.2746e-05
8.7900e+03,6.2828e-05
8.8000e+03,6.2864e-05
8.8100e+03,6.2861e-05
8.8200e+03,6.2833e-05
8.8300e+03,6.2792e-05
8.8400e+03,6.2717e-05
8.8500e+03,6.2558e-05
8.8600e+03,6.2282e-05
8.8700e+03,6.1921e-05
8.8800e+03,6.1553e-05
8.8900e+03,6.1246e-05
8.9000e+03,6.1021e-05
8.9100e+03,6.0858e-05
8.9200e+03,6.0737e-05
8.9300e+03,6.0647e-05
8.9400e+03,6.0577e-05
8.9500e+03,6.0521e-05
8.9600e+03,6.0481e-05
8.9700e+03,6.0460e-05
8.9800e+03,6.0467e-05
8.9900e+03,6.0506e-05
9.0000e+03,6.0578e-05
9.0100e+03,6.0663e-05
9.0200e+03,6.0725e-05
9.0300e+03,6.0729e-05
9.0400e+03,6.0660e-05
9.0500e+03,6.0520e-05
9.0600e+03,6.0329e-05
9.0700e+03,6.0119e-05
