# Time , Side-Flux
0.0000e+00,0.0000e+00
1.0000e+01,2.9634e-06
2.0000e+01,5.7646e-06
3.0000e+01,8.2766e-06
4.0000e+01,1.0427e-05
5.0000e+01,1.2198e-05
6.0000e+01,1.3612e-05
7.0000e+01,1.4715e-05
8.0000e+01,1.5562e-05
9.0000e+01,1.6206e-05
1.0000e+02,1.6693e-05
1.1000e+02,1.7060e-05
1.2000e+02,1.7339e-05
1.3000e+02,1.7552e-05
1.4000e+02,1.7716e-05
1.5000e+02,1.7844e-05
1.6000e+02,1.7945e-05
1.7000e+02,1.8025e-05
1.8000e+02,1.8090e-05
1.9000e+02,1.8143e-05
2.0000e+02,1.8186e-05
2.1000e+02,1.8222e-05
2.2000e+02,1.8252e-05
2.3000e+02,1.8277e-05
2.4000e+02,1.8299e-05
2.5000e+02,1.8317e-05
2.6000e+02,1.8332e-05
2.7000e+02,1.8345e-05
2.8000e+02,1.8357e-05
2.9000e+02,1.8368e-05
3.0000e+02,1.8377e-05
3.1000e+02,1.8386e-05
3.2000e+02,1.8395e-05
3.3000e+02,1.8403e-05
3.4000e+02,1.8411e-05
3.5000e+02,1.8418e-05
3.6000e+02,1.8424e-05
3.7000e+02,1.8431e-05
3.8000e+02,1.8436e-05
3.9000e+02,1.8441e-05
4.0000e+02,1.8445e-05
4.1000e+02,1.8449e-05
4.2000e+02,1.8451e-05
4.3000e+02,1.8453e-05
4.4000e+02,1.8454e-05
4.5000e+02,1.8456e-05
4.6000e+02,1.8457e-05
4.7000e+02,1.8458e-05
4.8000e+02,1.8459e-05
4.9000e+02,1.8459e-05
5.0000e+02,1.8459e-05
5.1000e+02,1.8459e-05
5.2000e+02,1.8459e-05
5.3000e+02,1.8458e-05
5.4000e+02,1.8458e-05
5.5000e+02,1.8457e-05
5.6000e+02,1.8457e-05
5.7000e+02,1.8457e-05
5.8000e+02,1.8457e-05
5.9000e+02,1.8457e-05
6.0000e+02,1.8457e-05
6.1000e+02,1.8456e-05
6.2000e+02,1.8455e-05
6.3000e+02,1.8452e-05
6.4000e+02,1.8446e-05
6.5000e+02,1.8438e-05
6.6000e+02,1.8427e-05
6.7000e+02,1.8412e-05
6.8000e+02,1.8394e-05
6.9000e+02,1.8374e-05
7.0000e+02,1.8353e-05
7.1000e+02,1.8331e-05
7.2000e+02,1.8311e-05
7.3000e+02,1.8292e-05
7.4000e+02,1.8277e-05
7.5000e+02,1.8264e-05
7.6000e+02,1.8255e-05
7.7000e+02,1.8251e-05
7.8000e+02,1.8250e-05
7.9000e+02,1.8252e-05
8.0000e+02,1.8255e-05
8.1000e+02,1.8259e-05
8.2000e+02,1.8261e-05
8.3000e+02,1.8262e-05
8.4000e+02,1.8262e-05
8.5000e+02,1.8261e-05
8.6000e+02,1.8259e-05
8.7000e+02,1.8258e-05
8.8000e+02,1.8257e-05
8.9000e+02,1.8255e-05
9.0000e+02,1.8250e-05
9.1000e+02,1.8242e-05
9.2000e+02,1.8227e-05
9.3000e+02,1.8206e-05
9.4000e+02,1.8177e-05
9.5000e+02,1.8142e-05
9.6000e+02,1.8103e-05
9.7000e+02,1.8062e-05
9.8000e+02,1.8023e-05
9.9000e+02,1.7988e-05
1.0000e+03,1.7961e-05
1.0100e+03,1.7941e-05
1.0200e+03,1.7926e-05
1.0300e+03,1.7913e-05
1.0400e+03,1.7899e-05
1.0500e+03,1.7880e-05
1.0600e+03,1.7855e-05
1.0700e+03,1.7824e-05
1.0800e+03,1.7788e-05
1.0900e+03,1.7749e-05
1.1000e+03,1.7711e-05
1.1100e+03,1.7676e-05
1.1200e+03,1.7648e-05
1.1300e+03,1.7628e-05
1.1400e+03,1.7617e-05
1.1500e+03,1.7614e-05
1.1600e+03,1.7616e-05
1.1700e+03,1.7623e-05
1.1800e+03,1.7632e-05
1.1900e+03,1.7641e-05
1.2000e+03,1.7650e-05
1.2100e+03,1.7658e-05
1.2200e+03,1.7664e-05
1.2300e+03,1.7667e-05
1.2400e+03,1.7668e-05
1.2500e+03,1.7666e-05
1.2600e+03,1.7663e-05
1.2700e+03,1.7659e-05
1.2800e+03,1.7654e-05
1.2900e+03,1.7651e-05
1.3000e+03,1.7650e-05
1.3100e+03,1.7650e-05
1.3200e+03,1.7650e-05
1.3300e+03,1.7651e-05
1.3400e+03,1.7650e-05
1.3500e+03,1.7648e-05
1.3600e+03,1.7645e-05
1.3700e+03,1.7640e-05
1.3800e+03,1.7634e-05
1.3900e+03,1.7629e-05
1.4000e+03,1.7624e-05
1.4100e+03,1.7621e-05
1.4200e+03,1.7618e-05
1.4300e+03,1.7617e-05
1.4400e+03,1.7616e-05
1.4500e+03,1.7615e-05
1.4600e+03,1.7614e-05
1.4700e+03,1.7614e-05
1.4800e+03,1.7613e-05
1.4900e+03,1.7612e-05
1.5000e+03,1.7612e-05
1.5100e+03,1.7612e-05
1.5200e+03,1.7612e-05
1.5300e+03,1.7612e-05
1.5400e+03,1.7612e-05
1.5500e+03,1.7612e-05
1.5600e+03,1.7612e-05
1.5700e+03,1.7612e-05
1.5800e+03,1.7611e-05
1.5900e+03,1.7611e-05
1.6000e+03,1.7610e-05
1.6100e+03,1.7609e-05
1.6200e+03,1.7608e-05
1.6300e+03,1.7606e-05
1.6400e+03,1.7602e-05
1.6500e+03,1.7597e-05
1.6600e+03,1.7590e-05
1.6700e+03,1.7583e-05
1.6800e+03,1.7576e-05
1.6900e+03,1.7570e-05
1.7000e+03,1.7564e-05
1.7100e+03,1.7560e-05
1.7200e+03,1.7555e-05
1.7300e+03,1.7550e-05
1.7400e+03,1.7545e-05
1.7500e+03,1.7540e-05
1.7600e+03,1.7534e-05
1.7700e+03,1.7530e-05
1.7800e+03,1.7526e-05
1.7900e+03,1.7522e-05
1.8000e+03,1.7519e-05
1.8100e+03,1.7515e-05
1.8200e+03,1.7510e-05
1.8300e+03,1.7505e-05
1.8400e+03,1.7497e-05
1.8500e+03,1.7489e-05
1.8600e+03,1.7481e-05
1.8700e+03,1.7472e-05
1.8800e+03,1.7463e-05
1.8900e+03,1.7454e-05
1.9000e+03,1.7444e-05
1.9100e+03,1.7434e-05
1.9200e+03,1.7424e-05
1.9300e+03,1.7414e-05
1.9400e+03,1.7404e-05
1.9500e+03,1.7394e-05
1.9600e+03,1.7387e-05
1.9700e+03,1.7382e-05
1.9800e+03,1.7379e-05
1.9900e+03,1.7379e-05
2.0000e+03,1.7379e-05
2.0100e+03,1.7380e-05
2.0200e+03,1.7380e-05
2.0300e+03,1.7377e-05
2.0400e+03,1.7372e-05
2.0500e+03,1.7364e-05
2.0600e+03,1.7355e-05
2.0700e+03,1.7345e-05
2.0800e+03,1.7334e-05
2.0900e+03,1.7321e-05
2.1000e+03,1.7308e-05
2.1100e+03,1.7292e-05
2.1200e+03,1.7274e-05
2.1300e+03,1.7254e-05
2.1400e+03,1.7230e-05
2.1500e+03,1.7203e-05
2.1600e+03,1.7173e-05
2.1700e+03,1.7140e-05
2.1800e+03,1.7105e-05
2.1900e+03,1.7070e-05
2.2000e+03,1.7036e-05
2.2100e+03,1.7005e-05
2.2200e+03,1.6978e-05
2.2300e+03,1.6955e-05
2.2400e+03,1.6938e-05
2.2500e+03,1.6926e-05
2.2600e+03,1.6918e-05
2.2700e+03,1.6914e-05
2.2800e+03,1.6914e-05
2.2900e+03,1.6916e-05
2.3000e+03,1.6920e-05
2.3100e+03,1.6924e-05
2.3200e+03,1.6927e-05
2.3300e+03,1.6929e-05
2.3400e+03,1.6929e-05
2.3500e+03,1.6927e-05
2.3600e+03,1.6925e-05
2.3700e+03,1.6923e-05
2.3800e+03,1.6922e-05
2.3900e+03,1.6920e-05
2.4000e+03,1.6920e-05
2.4100e+03,1.6920e-05
2.4200e+03,1.6921e-05
2.4300e+03,1.6921e-05
2.4400e+03,1.6923e-05
2.4500e+03,1.6924e-05
2.4600e+03,1.6925e-05
2.4700e+03,1.6926e-05
2.4800e+03,1.6927e-05
2.4900e+03,1.6927e-05
2.5000e+03,1.6927e-05
2.5100e+03,1.6926e-05
2.5200e+03,1.6925e-05
2.5300e+03,1.6924e-05
2.5400e+03,1.6923e-05
2.5500e+03,1.6922e-05
2.5600e+03,1.6921e-05
2.5700e+03,1.6919e-05
2.5800e+03,1.6918e-05
2.5900e+03,1.6917e-05
2.6000e+03,1.6915e-05
2.6100e+03,1.6914e-05
2.6200e+03,1.6912e-05
2.6300e+03,1.6909e-05
2.6400e+03,1.6906e-05
2.6500e+03,1.6903e-05
2.6600e+03,1.6899e-05
2.6700e+03,1.6894e-05
2.6800e+03,1.6888e-05
2.6900e+03,1.6881e-05
2.7000e+03,1.6874e-05
2.7100e+03,1.6866e-05
2.7200e+03,1.6858e-05
2.7300e+03,1.6849e-05
2.7400e+03,1.6842e-05
2.7500e+03,1.6836e-05
2.7600e+03,1.6831e-05
2.7700e+03,1.6829e-05
2.7800e+03,1.6829e-05
2.7900e+03,1.6831e-05
2.8000e+03,1.6833e-05
2.8100e+03,1.6834e-05
2.8200e+03,1.6833e-05
2.8300e+03,1.6829e-05
2.8400e+03,1.6824e-05
2.8500e+03,1.6818e-05
2.8600e+03,1.6810e-05
2.8700e+03,1.6802e-05
2.8800e+03,1.6794e-05
2.8900e+03,1.6784e-05
2.9000e+03,1.6772e-05
2.9100e+03,1.6755e-05
2.9200e+03,1.6734e-05
2.9300e+03,1.6708e-05
2.9400e+03,1.6679e-05
2.9500e+03,1.6650e-05
2.9600e+03,1.6625e-05
2.9700e+03,1.6606e-05
2.9800e+03,1.6594e-05
2.9900e+03,1.6588e-05
3.0000e+03,1.6586e-05
3.0100e+03,1.6586e-05
3.0200e+03,1.6585e-05
3.0300e+03,1.6582e-05
3.0400e+03,1.6578e-05
3.0500e+03,1.6573e-05
3.0600e+03,1.6570e-05
3.0700e+03,1.6569e-05
3.0800e+03,1.6571e-05
3.0900e+03,1.6574e-05
3.1000e+03,1.6576e-05
3.1100e+03,1.6575e-05
3.1200e+03,1.6570e-05
3.1300e+03,1.6559e-05
3.1400e+03,1.6544e-05
3.1500e+03,1.6525e-05
3.1600e+03,1.6505e-05
3.1700e+03,1.6485e-05
3.1800e+03,1.6465e-05
3.1900e+03,1.6446e-05
3.2000e+03,1.6429e-05
3.2100e+03,1.6415e-05
3.2200e+03,1.6403e-05
3.2300e+03,1.6394e-05
3.2400e+03,1.6389e-05
3.2500e+03,1.6387e-05
3.2600e+03,1.6389e-05
3.2700e+03,1.6393e-05
3.2800e+03,1.6397e-05
3.2900e+03,1.6401e-05
3.3000e+03,1.6402e-05
3.3100e+03,1.6400e-05
3.3200e+03,1.6395e-05
3.3300e+03,1.6387e-05
3.3400e+03,1.6377e-05
3.3500e+03,1.6366e-05
3.3600e+03,1.6357e-05
3.3700e+03,1.6349e-05
3.3800e+03,1.6344e-05
3.3900e+03,1.6342e-05
3.4000e+03,1.6342e-05
3.4100e+03,1.6342e-05
3.4200e+03,1.6340e-05
3.4300e+03,1.6336e-05
3.4400e+03,1.6328e-05
3.4500e+03,1.6316e-05
3.4600e+03,1.6303e-05
3.4700e+03,1.6290e-05
3.4800e+03,1.6279e-05
3.4900e+03,1.6270e-05
3.5000e+03,1.6265e-05
3.5100e+03,1.6262e-05
3.5200e+03,1.6261e-05
3.5300e+03,1.6261e-05
3.5400e+03,1.6262e-05
3.5500e+03,1.6264e-05
3.5600e+03,1.6266e-05
3.5700e+03,1.6268e-05
3.5800e+03,1.6269e-05
3.5900e+03,1.6270e-05
3.6000e+03,1.6270e-05
3.6100e+03,1.6269e-05
3.6200e+03,1.6268e-05
3.6300e+03,1.6266e-05
3.6400e+03,1.6265e-05
3.6500e+03,1.6264e-05
3.6600e+03,1.6263e-05
3.6700e+03,1.6263e-05
3.6800e+03,1.6262e-05
3.6900e+03,1.6261e-05
3.7000e+03,1.6259e-05
3.7100e+03,1.6256e-05
3.7200e+03,1.6250e-05
3.7300e+03,1.6240e-05
3.7400e+03,1.6228e-05
3.7500e+03,1.6212e-05
3.7600e+03,1.6194e-05
3.7700e+03,1.6176e-05
3.7800e+03,1.6160e-05
3.7900e+03,1.6148e-05
3.8000e+03,1.6142e-05
3.8100e+03,1.6144e-05
3.8200e+03,1.6151e-05
3.8300e+03,1.6164e-05
3.8400e+03,1.6180e-05
3.8500e+03,1.6198e-05
3.8600e+03,1.6216e-05
3.8700e+03,1.6232e-05
3.8800e+03,1.6245e-05
3.8900e+03,1.6251e-05
3.9000e+03,1.6248e-05
3.9100e+03,1.6233e-05
3.9200e+03,1.6203e-05
3.9300e+03,1.6157e-05
3.9400e+03,1.6094e-05
3.9500e+03,1.6020e-05
3.9600e+03,1.5938e-05
3.9700e+03,1.5854e-05
3.9800e+03,1.5776e-05
3.9900e+03,1.5708e-05
4.0000e+03,1.5654e-05
4.0100e+03,1.5615e-05
4.0200e+03,1.5592e-05
4.0300e+03,1.5582e-05
4.0400e+03,1.5583e-05
4.0500e+03,1.5591e-05
4.0600e+03,1.5605e-05
4.0700e+03,1.5622e-05
4.0800e+03,1.5640e-05
4.0900e+03,1.5660e-05
4.1000e+03,1.5680e-05
4.1100e+03,1.5700e-05
4.1200e+03,1.5719e-05
4.1300e+03,1.5736e-05
4.1400e+03,1.5751e-05
4.1500e+03,1.5762e-05
4.1600e+03,1.5768e-05
4.1700e+03,1.5770e-05
4.1800e+03,1.5768e-05
4.1900e+03,1.5762e-05
4.2000e+03,1.5754e-05
4.2100e+03,1.5745e-05
4.2200e+03,1.5736e-05
4.2300e+03,1.5727e-05
4.2400e+03,1.5719e-05
4.2500e+03,1.5714e-05
4.2600e+03,1.5709e-05
4.2700e+03,1.5707e-05
4.2800e+03,1.5708e-05
4.2900e+03,1.5710e-05
4.3000e+03,1.5713e-05
4.3100e+03,1.5718e-05
4.3200e+03,1.5724e-05
4.3300e+03,1.5731e-05
4.3400e+03,1.5738e-05
4.3500e+03,1.5745e-05
4.3600e+03,1.5753e-05
4.3700e+03,1.5761e-05
4.3800e+03,1.5770e-05
4.3900e+03,1.5779e-05
4.4000e+03,1.5788e-05
4.4100e+03,1.5797e-05
4.4200e+03,1.5804e-05
4.4300e+03,1.5808e-05
4.4400e+03,1.5809e-05
4.4500e+03,1.5806e-05
4.4600e+03,1.5799e-05
4.4700e+03,1.5789e-05
4.4800e+03,1.5777e-05
4.4900e+03,1.5763e-05
4.5000e+03,1.5748e-05
4.5100e+03,1.5734e-05
4.5200e+03,1.5721e-05
4.5300e+03,1.5710e-05
4.5400e+03,1.5701e-05
4.5500e+03,1.5694e-05
4.5600e+03,1.5689e-05
4.5700e+03,1.5686e-05
4.5800e+03,1.5684e-05
4.5900e+03,1.5682e-05
4.6000e+03,1.5681e-05
4.6100e+03,1.5680e-05
4.6200e+03,1.5679e-05
4.6300e+03,1.5679e-05
4.6400e+03,1.5678e-05
4.6500e+03,1.5678e-05
4.6600e+03,1.5677e-05
4.6700e+03,1.5674e-05
4.6800e+03,1.5670e-05
4.6900e+03,1.5664e-05
4.7000e+03,1.5656e-05
4.7100e+03,1.5646e-05
4.7200e+03,1.5634e-05
4.7300e+03,1.5620e-05
4.7400e+03,1.5604e-05
4.7500e+03,1.5586e-05
4.7600e+03,1.5567e-05
4.7700e+03,1.5544e-05
4.7800e+03,1.5518e-05
4.7900e+03,1.5488e-05
4.8000e+03,1.5454e-05
4.8100e+03,1.5415e-05
4.8200e+03,1.5373e-05
4.8300e+03,1.5327e-05
4.8400e+03,1.5279e-05
4.8500e+03,1.5230e-05
4.8600e+03,1.5179e-05
4.8700e+03,1.5127e-05
4.8800e+03,1.5076e-05
4.8900e+03,1.5025e-05
4.9000e+03,1.4976e-05
4.9100e+03,1.4930e-05
4.9200e+03,1.4886e-05
4.9300e+03,1.4846e-05
4.9400e+03,1.4811e-05
4.9500e+03,1.4782e-05
4.9600e+03,1.4761e-05
4.9700e+03,1.4751e-05
4.9800e+03,1.4753e-05
4.9900e+03,1.4769e-05
5.0000e+03,1.4802e-05
5.0100e+03,1.4852e-05
5.0200e+03,1.4917e-05
5.0300e+03,1.4997e-05
5.0400e+03,1.5090e-05
5.0500e+03,1.5193e-05
5.0600e+03,1.5304e-05
5.0700e+03,1.5422e-05
5.0800e+03,1.5547e-05
5.0900e+03,1.5678e-05
5.1000e+03,1.5812e-05
5.1100e+03,1.5942e-05
5.1200e+03,1.6062e-05
5.1300e+03,1.6166e-05
5.1400e+03,1.6248e-05
5.1500e+03,1.6305e-05
5.1600e+03,1.6335e-05
5.1700e+03,1.6340e-05
5.1800e+03,1.6321e-05
5.1900e+03,1.6281e-05
5.2000e+03,1.6222e-05
5.2100e+03,1.6150e-05
5.2200e+03,1.6067e-05
5.2300e+03,1.5977e-05
5.2400e+03,1.5885e-05
5.2500e+03,1.5791e-05
5.2600e+03,1.5698e-05
5.2700e+03,1.5607e-05
5.2800e+03,1.5518e-05
5.2900e+03,1.5433e-05
5.3000e+03,1.5352e-05
5.3100e+03,1.5276e-05
5.3200e+03,1.5205e-05
5.3300e+03,1.5141e-05
5.3400e+03,1.5085e-05
5.3500e+03,1.5037e-05
5.3600e+03,1.4997e-05
5.3700e+03,1.4966e-05
5.3800e+03,1.4944e-05
5.3900e+03,1.4931e-05
5.4000e+03,1.4927e-05
5.4100e+03,1.4929e-05
5.4200e+03,1.4938e-05
5.4300e+03,1.4950e-05
5.4400e+03,1.4965e-05
5.4500e+03,1.4982e-05
5.4600e+03,1.5000e-05
5.4700e+03,1.5019e-05
5.4800e+03,1.5036e-05
5.4900e+03,1.5052e-05
5.5000e+03,1.5066e-05
5.5100e+03,1.5077e-05
5.5200e+03,1.5086e-05
5.5300e+03,1.5092e-05
5.5400e+03,1.5095e-05
5.5500e+03,1.5097e-05
5.5600e+03,1.5097e-05
5.5700e+03,1.5096e-05
5.5800e+03,1.5094e-05
5.5900e+03,1.5090e-05
5.6000e+03,1.5087e-05
5.6100e+03,1.5083e-05
5.6200e+03,1.5078e-05
5.6300e+03,1.5072e-05
5.6400e+03,1.5066e-05
5.6500e+03,1.5058e-05
5.6600e+03,1.5050e-05
5.6700e+03,1.5040e-05
5.6800e+03,1.5031e-05
5.6900e+03,1.5021e-05
5.7000e+03,1.5012e-05
5.7100e+03,1.5004e-05
5.7200e+03,1.4996e-05
5.7300e+03,1.4990e-05
5.7400e+03,1.4985e-05
5.7500e+03,1.4981e-05
5.7600e+03,1.4977e-05
5.7700e+03,1.4975e-05
5.7800e+03,1.4975e-05
5.7900e+03,1.4976e-05
5.8000e+03,1.4978e-05
5.8100e+03,1.4982e-05
5.8200e+03,1.4985e-05
5.8300e+03,1.4986e-05
5.8400e+03,1.4986e-05
5.8500e+03,1.4983e-05
5.8600e+03,1.4977e-05
5.8700e+03,1.4968e-05
5.8800e+03,1.4957e-05
5.8900e+03,1.4944e-05
5.9000e+03,1.4927e-05
5.9100e+03,1.4908e-05
5.9200e+03,1.4885e-05
5.9300e+03,1.4859e-05
5.9400e+03,1.4830e-05
5.9500e+03,1.4796e-05
5.9600e+03,1.4760e-05
5.9700e+03,1.4720e-05
5.9800e+03,1.4677e-05
5.9900e+03,1.4633e-05
6.0000e+03,1.4587e-05
6.0100e+03,1.4539e-05
6.0200e+03,1.4487e-05
6.0300e+03,1.4431e-05
6.0400e+03,1.4369e-05
6.0500e+03,1.4300e-05
6.0600e+03,1.4223e-05
6.0700e+03,1.4137e-05
6.0800e+03,1.4042e-05
6.0900e+03,1.3939e-05
6.1000e+03,1.3826e-05
6.1100e+03,1.3703e-05
6.1200e+03,1.3570e-05
6.1300e+03,1.3426e-05
6.1400e+03,1.3271e-05
6.1500e+03,1.3105e-05
6.1600e+03,1.2931e-05
6.1700e+03,1.2752e-05
6.1800e+03,1.2572e-05
6.1900e+03,1.2396e-05
6.2000e+03,1.2226e-05
6.2100e+03,1.2066e-05
6.2200e+03,1.1915e-05
6.2300e+03,1.1774e-05
6.2400e+03,1.1642e-05
6.2500e+03,1.1516e-05
6.2600e+03,1.1397e-05
6.2700e+03,1.1284e-05
6.2800e+03,1.1178e-05
6.2900e+03,1.1081e-05
6.3000e+03,1.0993e-05
6.3100e+03,1.0917e-05
6.3200e+03,1.0854e-05
6.3300e+03,1.0804e-05
6.3400e+03,1.0766e-05
6.3500e+03,1.0739e-05
6.3600e+03,1.0721e-05
6.3700e+03,1.0709e-05
6.3800e+03,1.0703e-05
6.3900e+03,1.0700e-05
6.4000e+03,1.0698e-05
6.4100e+03,1.0697e-05
6.4200e+03,1.0695e-05
6.4300e+03,1.0694e-05
6.4400e+03,1.0695e-05
6.4500e+03,1.0698e-05
6.4600e+03,1.0707e-05
6.4700e+03,1.0722e-05
6.4800e+03,1.0745e-05
6.4900e+03,1.0779e-05
6.5000e+03,1.0822e-05
6.5100e+03,1.0874e-05
6.5200e+03,1.0935e-05
6.5300e+03,1.1004e-05
6.5400e+03,1.1078e-05
6.5500e+03,1.1154e-05
6.5600e+03,1.1229e-05
6.5700e+03,1.1300e-05
6.5800e+03,1.1363e-05
6.5900e+03,1.1416e-05
6.6000e+03,1.1459e-05
6.6100e+03,1.1491e-05
6.6200e+03,1.1514e-05
6.6300e+03,1.1529e-05
6.6400e+03,1.1537e-05
6.6500e+03,1.1541e-05
6.6600e+03,1.1541e-05
6.6700e+03,1.1538e-05
6.6800e+03,1.1534e-05
6.6900e+03,1.1528e-05
6.7000e+03,1.1522e-05
6.7100e+03,1.1515e-05
6.7200e+03,1.1508e-05
6.7300e+03,1.1502e-05
6.7400e+03,1.1496e-05
6.7500e+03,1.1491e-05
6.7600e+03,1.1486e-05
6.7700e+03,1.1480e-05
6.7800e+03,1.1475e-05
6.7900e+03,1.1470e-05
6.8000e+03,1.1466e-05
6.8100e+03,1.1461e-05
6.8200e+03,1.1456e-05
6.8300e+03,1.1448e-05
6.8400e+03,1.1438e-05
6.8500e+03,1.1424e-05
6.8600e+03,1.1405e-05
6.8700e+03,1.1382e-05
6.8800e+03,1.1357e-05
6.8900e+03,1.1332e-05
6.9000e+03,1.1307e-05
6.9100e+03,1.1285e-05
6.9200e+03,1.1268e-05
6.9300e+03,1.1256e-05
6.9400e+03,1.1250e-05
6.9500e+03,1.1251e-05
6.9600e+03,1.1258e-05
6.9700e+03,1.1272e-05
6.9800e+03,1.1292e-05
6.9900e+03,1.1320e-05
7.0000e+03,1.1354e-05
7.0100e+03,1.1394e-05
7.0200e+03,1.1439e-05
7.0300e+03,1.1488e-05
7.0400e+03,1.1540e-05
7.0500e+03,1.1592e-05
7.0600e+03,1.1643e-05
7.0700e+03,1.1691e-05
7.0800e+03,1.1736e-05
7.0900e+03,1.1779e-05
7.1000e+03,1.1820e-05
7.1100e+03,1.1864e-05
7.1200e+03,1.1914e-05
7.1300e+03,1.1973e-05
7.1400e+03,1.2044e-05
7.1500e+03,1.2126e-05
7.1600e+03,1.2220e-05
7.1700e+03,1.2322e-05
7.1800e+03,1.2429e-05
7.1900e+03,1.2539e-05
7.2000e+03,1.2650e-05
7.2100e+03,1.2763e-05
7.2200e+03,1.2878e-05
7.2300e+03,1.2994e-05
7.2400e+03,1.3110e-05
7.2500e+03,1.3223e-05
7.2600e+03,1.3328e-05
7.2700e+03,1.3422e-05
7.2800e+03,1.3500e-05
7.2900e+03,1.3564e-05
7.3000e+03,1.3615e-05
7.3100e+03,1.3658e-05
7.3200e+03,1.3696e-05
7.3300e+03,1.3735e-05
7.3400e+03,1.3775e-05
7.3500e+03,1.3818e-05
7.3600e+03,1.3863e-05
7.3700e+03,1.3908e-05
7.3800e+03,1.3953e-05
7.3900e+03,1.3994e-05
7.4000e+03,1.4030e-05
7.4100e+03,1.4060e-05
7.4200e+03,1.4082e-05
7.4300e+03,1.4096e-05
7.4400e+03,1.4103e-05
7.4500e+03,1.4103e-05
7.4600e+03,1.4099e-05
7.4700e+03,1.4094e-05
7.4800e+03,1.4091e-05
7.4900e+03,1.4094e-05
7.5000e+03,1.4106e-05
7.5100e+03,1.4128e-05
7.5200e+03,1.4160e-05
7.5300e+03,1.4200e-05
7.5400e+03,1.4245e-05
7.5500e+03,1.4294e-05
7.5600e+03,1.4343e-05
7.5700e+03,1.4389e-05
7.5800e+03,1.4431e-05
7.5900e+03,1.4468e-05
7.6000e+03,1.4499e-05
7.6100e+03,1.4525e-05
7.6200e+03,1.4549e-05
7.6300e+03,1.4571e-05
7.6400e+03,1.4594e-05
7.6500e+03,1.4616e-05
7.6600e+03,1.4636e-05
7.6700e+03,1.4655e-05
7.6800e+03,1.4670e-05
7.6900e+03,1.4681e-05
7.7000e+03,1.4688e-05
7.7100e+03,1.4692e-05
7.7200e+03,1.4693e-05
7.7300e+03,1.4693e-05
7.7400e+03,1.4692e-05
7.7500e+03,1.4690e-05
7.7600e+03,1.4687e-05
7.7700e+03,1.4683e-05
7.7800e+03,1.4677e-05
7.7900e+03,1.4670e-05
7.8000e+03,1.4661e-05
7.8100e+03,1.4652e-05
7.8200e+03,1.4644e-05
7.8300e+03,1.4639e-05
7.8400e+03,1.4637e-05
7.8500e+03,1.4641e-05
7.8600e+03,1.4649e-05
7.8700e+03,1.4662e-05
7.8800e+03,1.4678e-05
7.8900e+03,1.4695e-05
7.9000e+03,1.4712e-05
7.9100e+03,1.4730e-05
7.9200e+03,1.4748e-05
7.9300e+03,1.4766e-05
7.9400e+03,1.4785e-05
7.9500e+03,1.4807e-05
7.9600e+03,1.4833e-05
7.9700e+03,1.4862e-05
7.9800e+03,1.4896e-05
7.9900e+03,1.4934e-05
8.0000e+03,1.4977e-05
8.0100e+03,1.5023e-05
8.0200e+03,1.5071e-05
8.0300e+03,1.5119e-05
8.0400e+03,1.5164e-05
8.0500e+03,1.5205e-05
8.0600e+03,1.5239e-05
8.0700e+03,1.5265e-05
8.0800e+03,1.5282e-05
8.0900e+03,1.5290e-05
8.1000e+03,1.5290e-05
8.1100e+03,1.5283e-05
8.1200e+03,1.5268e-05
8.1300e+03,1.5248e-05
8.1400e+03,1.5224e-05
8.1500e+03,1.5199e-05
8.1600e+03,1.5174e-05
8.1700e+03,1.5152e-05
8.1800e+03,1.5133e-05
8.1900e+03,1.5118e-05
8.2000e+03,1.5105e-05
8.2100e+03,1.5094e-05
8.2200e+03,1.5084e-05
8.2300e+03,1.5074e-05
8.2400e+03,1.5067e-05
8.2500e+03,1.5062e-05
8.2600e+03,1.5061e-05
8.2700e+03,1.5066e-05
8.2800e+03,1.5076e-05
8.2900e+03,1.5091e-05
8.3000e+03,1.5111e-05
8.3100e+03,1.5134e-05
8.3200e+03,1.5160e-05
8.3300e+03,1.5187e-05
8.3400e+03,1.5215e-05
8.3500e+03,1.5242e-05
8.3600e+03,1.5267e-05
8.3700e+03,1.5290e-05
8.3800e+03,1.5311e-05
8.3900e+03,1.5329e-05
8.4000e+03,1.5346e-05
8.4100e+03,1.5360e-05
8.4200e+03,1.5373e-05
8.4300e+03,1.5386e-05
8.4400e+03,1.5400e-05
8.4500e+03,1.5415e-05
8.4600e+03,1.5432e-05
8.4700e+03,1.5450e-05
8.4800e+03,1.5470e-05
8.4900e+03,1.5490e-05
8.5000e+03,1.5509e-05
8.5100e+03,1.5525e-05
8.5200e+03,1.5537e-05
8.5300e+03,1.5542e-05
8.5400e+03,1.5541e-05
8.5500e+03,1.5532e-05
8.5600e+03,1.5516e-05
8.5700e+03,1.5492e-05
8.5800e+03,1.5462e-05
8.5900e+03,1.5426e-05
8.6000e+03,1.5386e-05
8.6100e+03,1.5343e-05
8.6200e+03,1.5299e-05
8.6300e+03,1.5256e-05
8.6400e+03,1.5218e-05
8.6500e+03,1.5188e-05
8.6600e+03,1.5167e-05
8.6700e+03,1.5156e-05
8.6800e+03,1.5156e-05
8.6900e+03,1.5163e-05
8.7000e+03,1.5177e-05
8.7100e+03,1.5193e-05
8.7200e+03,1.5210e-05
8.7300e+03,1.5224e-05
8.7400e+03,1.5236e-05
8.7500e+03,1.5244e-05
8.7600e+03,1.5249e-05
8.7700e+03,1.5252e-05
8.7800e+03,1.5253e-05
8.7900e+03,1.5253e-05
8.8000e+03,1.5253e-05
8.8100e+03,1.5250e-05
8.8200e+03,1.5245e-05
8.8300e+03,1.5236e-05
8.8400e+03,1.5222e-05
8.8500e+03,1.5202e-05
8.8600e+03,1.5178e-05
8.8700e+03,1.5149e-05
8.8800e+03,1.5119e-05
8.8900e+03,1.5089e-05
8.9000e+03,1.5063e-05
8.9100e+03,1.5041e-05
8.9200e+03,1.5025e-05
8.9300e+03,1.5014e-05
8.9400e+03,1.5009e-05
8.9500e+03,1.5008e-05
8.9600e+03,1.5013e-05
8.9700e+03,1.5020e-05
8.9800e+03,1.5031e-05
8.9900e+03,1.5043e-05
9.0000e+03,1.5055e-05
9.0100e+03,1.5064e-05
9.0200e+03,1.5070e-05
9.0300e+03,1.5070e-05
9.0400e+03,1.5064e-05
9.0500e+03,1.5050e-05
9.0600e+03,1.5029e-05
9.0700e+03,1.5004e-05
