# Time , Side-Flux
0.0000e+00,0.0000e+00
1.0000e+01,3.6442e-09
2.0000e+01,7.2784e-09
3.0000e+01,1.0893e-08
4.0000e+01,1.4479e-08
5.0000e+01,1.8026e-08
6.0000e+01,2.1526e-08
7.0000e+01,2.4972e-08
8.0000e+01,2.8354e-08
9.0000e+01,3.1667e-08
1.0000e+02,3.4904e-08
1.1000e+02,3.8060e-08
1.2000e+02,4.1130e-08
1.3000e+02,4.4110e-08
1.4000e+02,4.6997e-08
1.5000e+02,4.9789e-08
1.6000e+02,5.2484e-08
1.7000e+02,5.5081e-08
1.8000e+02,5.7580e-08
1.9000e+02,5.9980e-08
2.0000e+02,6.2283e-08
2.1000e+02,6.4490e-08
2.2000e+02,6.6602e-08
2.3000e+02,6.8621e-08
2.4000e+02,7.0549e-08
2.5000e+02,7.2390e-08
2.6000e+02,7.4144e-08
2.7000e+02,7.5816e-08
2.8000e+02,7.7409e-08
2.9000e+02,7.8924e-08
3.0000e+02,8.0366e-08
3.1000e+02,8.1737e-08
3.2000e+02,8.3041e-08
3.3000e+02,8.4280e-08
3.4000e+02,8.5458e-08
3.5000e+02,8.6578e-08
3.6000e+02,8.7643e-08
3.7000e+02,8.8655e-08
3.8000e+02,8.9617e-08
3.9000e+02,9.0532e-08
4.0000e+02,9.1403e-08
4.1000e+02,9.2233e-08
4.2000e+02,9.3022e-08
4.3000e+02,9.3775e-08
4.4000e+02,9.4493e-08
4.5000e+02,9.5178e-08
4.6000e+02,9.5832e-08
4.7000e+02,9.6458e-08
4.8000e+02,9.7057e-08
4.9000e+02,9.7630e-08
5.0000e+02,9.8180e-08
5.1000e+02,9.8708e-08
5.2000e+02,9.9216e-08
5.3000e+02,9.9704e-08
5.4000e+02,1.0017e-07
5.5000e+02,1.0063e-07
5.6000e+02,1.0107e-07
5.7000e+02,1.0149e-07
5.8000e+02,1.0190e-07
5.9000e+02,1.0230e-07
6.0000e+02,1.0268e-07
6.1000e+02,1.0306e-07
6.2000e+02,1.0342e-07
6.3000e+02,1.0377e-07
6.4000e+02,1.0412e-07
6.5000e+02,1.0445e-07
6.6000e+02,1.0478e-07
6.7000e+02,1.0510e-07
6.8000e+02,1.0541e-07
6.9000e+02,1.0572e-07
7.0000e+02,1.0601e-07
7.1000e+02,1.0630e-07
7.2000e+02,1.0659e-07
7.3000e+02,1.0686e-07
7.4000e+02,1.0713e-07
7.5000e+02,1.0740e-07
7.6000e+02,1.0765e-07
7.7000e+02,1.0790e-07
7.8000e+02,1.0815e-07
7.9000e+02,1.0838e-07
8.0000e+02,1.0861e-07
8.1000e+02,1.0883e-07
8.2000e+02,1.0905e-07
8.3000e+02,1.0925e-07
8.4000e+02,1.0946e-07
8.5000e+02,1.0965e-07
8.6000e+02,1.0984e-07
8.7000e+02,1.1002e-07
8.8000e+02,1.1020e-07
8.9000e+02,1.1037e-07
9.0000e+02,1.1053e-07
9.1000e+02,1.1070e-07
9.2000e+02,1.1085e-07
9.3000e+02,1.1101e-07
9.4000e+02,1.1117e-07
9.5000e+02,1.1132e-07
9.6000e+02,1.1147e-07
9.7000e+02,1.1163e-07
9.8000e+02,1.1178e-07
9.9000e+02,1.1194e-07
1.0000e+03,1.1210e-07
1.0100e+03,1.1227e-07
1.0200e+03,1.1244e-07
1.0300e+03,1.1261e-07
1.0400e+03,1.1279e-07
1.0500e+03,1.1297e-07
1.0600e+03,1.1316e-07
1.0700e+03,1.1336e-07
1.0800e+03,1.1356e-07
1.0900e+03,1.1377e-07
1.1000e+03,1.1398e-07
1.1100e+03,1.1420e-07
1.1200e+03,1.1442e-07
1.1300e+03,1.1464e-07
1.1400e+03,1.1487e-07
1.1500e+03,1.1510e-07
1.1600e+03,1.1533e-07
1.1700e+03,1.1556e-07
1.1800e+03,1.1579e-07
1.1900e+03,1.1602e-07
1.2000e+03,1.1625e-07
1.2100e+03,1.1648e-07
1.2200e+03,1.1670e-07
1.2300e+03,1.1691e-07
1.2400e+03,1.1712e-07
1.2500e+03,1.1733e-07
1.2600e+03,1.1753e-07
1.2700e+03,1.1772e-07
1.2800e+03,1.1790e-07
1.2900e+03,1.1807e-07
1.3000e+03,1.1823e-07
1.3100e+03,1.1838e-07
1.3200e+03,1.1853e-07
1.3300e+03,1.1866e-07
1.3400e+03,1.1878e-07
1.3500e+03,1.1889e-07
1.3600e+03,1.1899e-07
1.3700e+03,1.1908e-07
1.3800e+03,1.1916e-07
1.3900e+03,1.1923e-07
1.4000e+03,1.1929e-07
1.4100e+03,1.1934e-07
1.4200e+03,1.1937e-07
1.4300e+03,1.1940e-07
1.4400e+03,1.1942e-07
1.4500e+03,1.1943e-07
1.4600e+03,1.1943e-07
1.4700e+03,1.1942e-07
1.4800e+03,1.1940e-07
1.4900e+03,1.1938e-07
1.5000e+03,1.1934e-07
1.5100e+03,1.1930e-07
1.5200e+03,1.1925e-07
1.5300e+03,1.1920e-07
1.5400e+03,1.1914e-07
1.5500e+03,1.1907e-07
1.5600e+03,1.1900e-07
1.5700e+03,1.1892e-07
1.5800e+03,1.1883e-07
1.5900e+03,1.1874e-07
1.6000e+03,1.1864e-07
1.6100e+03,1.1855e-07
1.6200e+03,1.1844e-07
1.6300e+03,1.1833e-07
1.6400e+03,1.1822e-07
1.6500e+03,1.1811e-07
1.6600e+03,1.1799e-07
1.6700e+03,1.1787e-07
1.6800e+03,1.1774e-07
1.6900e+03,1.1762e-07
1.7000e+03,1.1749e-07
1.7100e+03,1.1736e-07
1.7200e+03,1.1724e-07
1.7300e+03,1.1711e-07
1.7400e+03,1.1698e-07
1.7500e+03,1.1685e-07
1.7600e+03,1.1672e-07
1.7700e+03,1.1659e-07
1.7800e+03,1.1646e-07
1.7900e+03,1.1633e-07
1.8000e+03,1.1621e-07
1.8100e+03,1.1608e-07
1.8200e+03,1.1596e-07
1.8300e+03,1.1584e-07
1.8400e+03,1.1572e-07
1.8500e+03,1.1560e-07
1.8600e+03,1.1549e-07
1.8700e+03,1.1537e-07
1.8800e+03,1.1526e-07
1.8900e+03,1.1515e-07
1.9000e+03,1.1504e-07
1.9100e+03,1.1494e-07
1.9200e+03,1.1484e-07
1.9300e+03,1.1474e-07
1.9400e+03,1.1464e-07
1.9500e+03,1.1454e-07
1.9600e+03,1.1445e-07
1.9700e+03,1.1436e-07
1.9800e+03,1.1427e-07
1.9900e+03,1.1419e-07
2.0000e+03,1.1411e-07
2.0100e+03,1.1403e-07
2.0200e+03,1.1396e-07
2.0300e+03,1.1389e-07
2.0400e+03,1.1382e-07
2.0500e+03,1.1376e-07
2.0600e+03,1.1371e-07
2.0700e+03,1.1366e-07
2.0800e+03,1.1362e-07
2.0900e+03,1.1358e-07
2.1000e+03,1.1355e-07
2.1100e+03,1.1352e-07
2.1200e+03,1.1350e-07
2.1300e+03,1.1349e-07
2.1400e+03,1.1348e-07
2.1500e+03,1.1348e-07
2.1600e+03,1.1349e-07
2.1700e+03,1.1351e-07
2.1800e+03,1.1353e-07
2.1900e+03,1.1356e-07
2.2000e+03,1.1359e-07
2.2100e+03,1.1363e-07
2.2200e+03,1.1368e-07
2.2300e+03,1.1373e-07
2.2400e+03,1.1379e-07
2.2500e+03,1.1385e-07
2.2600e+03,1.1392e-07
2.2700e+03,1.1399e-07
2.2800e+03,1.1407e-07
2.2900e+03,1.1415e-07
2.3000e+03,1.1423e-07
2.3100e+03,1.1431e-07
2.3200e+03,1.1440e-07
2.3300e+03,1.1449e-07
2.3400e+03,1.1457e-07
2.3500e+03,1.1466e-07
2.3600e+03,1.1475e-07
2.3700e+03,1.1484e-07
2.3800e+03,1.1493e-07
2.3900e+03,1.1502e-07
2.4000e+03,1.1511e-07
2.4100e+03,1.1519e-07
2.4200e+03,1.1528e-07
2.4300e+03,1.1536e-07
2.4400e+03,1.1544e-07
2.4500e+03,1.1552e-07
2.4600e+03,1.1560e-07
2.4700e+03,1.1567e-07
2.4800e+03,1.1574e-07
2.4900e+03,1.1581e-07
2.5000e+03,1.1588e-07
2.5100e+03,1.1594e-07
2.5200e+03,1.1601e-07
2.5300e+03,1.1607e-07
2.5400e+03,1.1612e-07
2.5500e+03,1.1618e-07
2.5600e+03,1.1623e-07
2.5700e+03,1.1628e-07
2.5800e+03,1.1633e-07
2.5900e+03,1.1638e-07
2.6000e+03,1.1642e-07
2.6100e+03,1.1646e-07
2.6200e+03,1.1650e-07
2.6300e+03,1.1654e-07
2.6400e+03,1.1658e-07
2.6500e+03,1.1662e-07
2.6600e+03,1.1665e-07
2.6700e+03,1.1669e-07
2.6800e+03,1.1673e-07
2.6900e+03,1.1676e-07
2.7000e+03,1.1679e-07
2.7100e+03,1.1683e-07
2.7200e+03,1.1686e-07
2.7300e+03,1.1690e-07
2.7400e+03,1.1694e-07
2.7500e+03,1.1697e-07
2.7600e+03,1.1701e-07
2.7700e+03,1.1705e-07
2.7800e+03,1.1709e-07
2.7900e+03,1.1714e-07
2.8000e+03,1.1718e-07
2.8100e+03,1.1723e-07
2.8200e+03,1.1728e-07
2.8300e+03,1.1733e-07
2.8400e+03,1.1739e-07
2.8500e+03,1.1745e-07
2.8600e+03,1.1751e-07
2.8700e+03,1.1757e-07
2.8800e+03,1.1764e-07
2.8900e+03,1.1771e-07
2.9000e+03,1.1779e-07
2.9100e+03,1.1786e-07
2.9200e+03,1.1794e-07
2.9300e+03,1.1803e-07
2.9400e+03,1.1812e-07
2.9500e+03,1.1821e-07
2.9600e+03,1.1830e-07
2.9700e+03,1.1840e-07
2.9800e+03,1.1849e-07
2.9900e+03,1.1859e-07
3.0000e+03,1.1870e-07
3.0100e+03,1.1880e-07
3.0200e+03,1.1891e-07
3.0300e+03,1.1902e-07
3.0400e+03,1.1913e-07
3.0500e+03,1.1924e-07
3.0600e+03,1.1935e-07
3.0700e+03,1.1946e-07
3.0800e+03,1.1957e-07
3.0900e+03,1.1968e-07
3.1000e+03,1.1979e-07
3.1100e+03,1.1990e-07
3.1200e+03,1.2001e-07
3.1300e+03,1.2012e-07
3.1400e+03,1.2023e-07
3.1500e+03,1.2034e-07
3.1600e+03,1.2044e-07
3.1700e+03,1.2055e-07
3.1800e+03,1.2066e-07
3.1900e+03,1.2076e-07
3.2000e+03,1.2086e-07
3.2100e+03,1.2096e-07
3.2200e+03,1.2106e-07
3.2300e+03,1.2116e-07
3.2400e+03,1.2126e-07
3.2500e+03,1.2135e-07
3.2600e+03,1.2144e-07
3.2700e+03,1.2154e-07
3.2800e+03,1.2163e-07
3.2900e+03,1.2172e-07
3.3000e+03,1.2180e-07
3.3100e+03,1.2189e-07
3.3200e+03,1.2197e-07
3.3300e+03,1.2205e-07
3.3400e+03,1.2213e-07
3.3500e+03,1.2221e-07
3.3600e+03,1.2228e-07
3.3700e+03,1.2236e-07
3.3800e+03,1.2243e-07
3.3900e+03,1.2249e-07
3.4000e+03,1.2256e-07
3.4100e+03,1.2262e-07
3.4200e+03,1.2268e-07
3.4300e+03,1.2274e-07
3.4400e+03,1.2280e-07
3.4500e+03,1.2285e-07
3.4600e+03,1.2290e-07
3.4700e+03,1.2294e-07
3.4800e+03,1.2299e-07
3.4900e+03,1.2303e-07
3.5000e+03,1.2306e-07
3.5100e+03,1.2310e-07
3.5200e+03,1.2313e-07
3.5300e+03,1.2316e-07
3.5400e+03,1.2318e-07
3.5500e+03,1.2320e-07
3.5600e+03,1.2322e-07
3.5700e+03,1.2324e-07
3.5800e+03,1.2325e-07
3.5900e+03,1.2326e-07
3.6000e+03,1.2327e-07
3.6100e+03,1.2327e-07
3.6200e+03,1.2327e-07
3.6300e+03,1.2327e-07
3.6400e+03,1.2327e-07
3.6500e+03,1.2326e-07
3.6600e+03,1.2325e-07
3.6700e+03,1.2324e-07
3.6800e+03,1.2322e-07
3.6900e+03,1.2321e-07
3.7000e+03,1.2319e-07
3.7100e+03,1.2317e-07
3.7200e+03,1.2314e-07
3.7300e+03,1.2312e-07
3.7400e+03,1.2309e-07
3.7500e+03,1.2306e-07
3.7600e+03,1.2303e-07
3.7700e+03,1.2300e-07
3.7800e+03,1.2296e-07
3.7900e+03,1.2293e-07
3.8000e+03,1.2289e-07
3.8100e+03,1.2286e-07
3.8200e+03,1.2282e-07
3.8300e+03,1.2278e-07
3.8400e+03,1.2274e-07
3.8500e+03,1.2271e-07
3.8600e+03,1.2267e-07
3.8700e+03,1.2263e-07
3.8800e+03,1.2259e-07
3.8900e+03,1.2256e-07
3.9000e+03,1.2252e-07
3.9100e+03,1.2249e-07
3.9200e+03,1.2246e-07
3.9300e+03,1.2242e-07
3.9400e+03,1.2239e-07
3.9500e+03,1.2236e-07
3.9600e+03,1.2234e-07
3.9700e+03,1.2231e-07
3.9800e+03,1.2229e-07
3.9900e+03,1.2226e-07
4.0000e+03,1.2224e-07
4.0100e+03,1.2222e-07
4.0200e+03,1.2221e-07
4.0300e+03,1.2219e-07
4.0400e+03,1.2217e-07
4.0500e+03,1.2216e-07
4.0600e+03,1.2215e-07
4.0700e+03,1.2214e-07
4.0800e+03,1.2213e-07
4.0900e+03,1.2212e-07
4.1000e+03,1.2212e-07
4.1100e+03,1.2211e-07
4.1200e+03,1.2211e-07
4.1300e+03,1.2210e-07
4.1400e+03,1.2210e-07
4.1500e+03,1.2209e-07
4.1600e+03,1.2209e-07
4.1700e+03,1.2209e-07
4.1800e+03,1.2209e-07
4.1900e+03,1.2209e-07
4.2000e+03,1.2208e-07
4.2100e+03,1.2208e-07
4.2200e+03,1.2208e-07
4.2300e+03,1.2208e-07
4.2400e+03,1.2208e-07
4.2500e+03,1.2208e-07
4.2600e+03,1.2208e-07
4.2700e+03,1.2208e-07
4.2800e+03,1.2208e-07
4.2900e+03,1.2208e-07
4.3000e+03,1.2208e-07
4.3100e+03,1.2208e-07
4.3200e+03,1.2207e-07
4.3300e+03,1.2207e-07
4.3400e+03,1.2207e-07
4.3500e+03,1.2207e-07
4.3600e+03,1.2207e-07
4.3700e+03,1.2207e-07
4.3800e+03,1.2208e-07
4.3900e+03,1.2208e-07
4.4000e+03,1.2208e-07
4.4100e+03,1.2208e-07
4.4200e+03,1.2208e-07
4.4300e+03,1.2208e-07
4.4400e+03,1.2208e-07
4.4500e+03,1.2208e-07
4.4600e+03,1.2208e-07
4.4700e+03,1.2209e-07
4.4800e+03,1.2209e-07
4.4900e+03,1.2209e-07
4.5000e+03,1.2209e-07
4.5100e+03,1.2209e-07
4.5200e+03,1.2209e-07
4.5300e+03,1.2209e-07
4.5400e+03,1.2210e-07
4.5500e+03,1.2210e-07
4.5600e+03,1.2210e-07
4.5700e+03,1.2210e-07
4.5800e+03,1.2210e-07
4.5900e+03,1.2210e-07
4.6000e+03,1.2210e-07
4.6100e+03,1.2210e-07
4.6200e+03,1.2210e-07
4.6300e+03,1.2210e-07
4.6400e+03,1.2210e-07
4.6500e+03,1.2210e-07
4.6600e+03,1.2210e-07
4.6700e+03,1.2210e-07
4.6800e+03,1.2210e-07
4.6900e+03,1.2209e-07
4.7000e+03,1.2209e-07
4.7100e+03,1.2209e-07
4.7200e+03,1.2209e-07
4.7300e+03,1.2208e-07
4.7400e+03,1.2208e-07
4.7500e+03,1.2208e-07
4.7600e+03,1.2208e-07
4.7700e+03,1.2207e-07
4.7800e+03,1.2207e-07
4.7900e+03,1.2207e-07
4.8000e+03,1.2207e-07
4.8100e+03,1.2207e-07
4.8200e+03,1.2206e-07
4.8300e+03,1.2206e-07
4.8400e+03,1.2206e-07
4.8500e+03,1.2206e-07
4.8600e+03,1.2206e-07
4.8700e+03,1.2206e-07
4.8800e+03,1.2207e-07
4.8900e+03,1.2207e-07
4.9000e+03,1.2207e-07
4.9100e+03,1.2208e-07
4.9200e+03,1.2209e-07
4.9300e+03,1.2209e-07
4.9400e+03,1.2210e-07
4.9500e+03,1.2211e-07
4.9600e+03,1.2213e-07
4.9700e+03,1.2214e-07
4.9800e+03,1.2216e-07
4.9900e+03,1.2217e-07
5.0000e+03,1.2220e-07
5.0100e+03,1.2222e-07
5.0200e+03,1.2224e-07
5.0300e+03,1.2227e-07
5.0400e+03,1.2230e-07
5.0500e+03,1.2233e-07
5.0600e+03,1.2237e-07
5.0700e+03,1.2240e-07
5.0800e+03,1.2244e-07
5.0900e+03,1.2248e-07
5.1000e+03,1.2252e-07
5.1100e+03,1.2257e-07
5.1200e+03,1.2261e-07
5.1300e+03,1.2266e-07
5.1400e+03,1.2270e-07
5.1500e+03,1.2275e-07
5.1600e+03,1.2280e-07
5.1700e+03,1.2284e-07
5.1800e+03,1.2289e-07
5.1900e+03,1.2294e-07
5.2000e+03,1.2299e-07
5.2100e+03,1.2303e-07
5.2200e+03,1.2308e-07
5.2300e+03,1.2313e-07
5.2400e+03,1.2317e-07
5.2500e+03,1.2322e-07
5.2600e+03,1.2326e-07
5.2700e+03,1.2330e-07
5.2800e+03,1.2335e-07
5.2900e+03,1.2339e-07
5.3000e+03,1.2343e-07
5.3100e+03,1.2347e-07
5.3200e+03,1.2351e-07
5.3300e+03,1.2355e-07
5.3400e+03,1.2359e-07
5.3500e+03,1.2363e-07
5.3600e+03,1.2367e-07
5.3700e+03,1.2371e-07
5.3800e+03,1.2375e-07
5.3900e+03,1.2378e-07
5.4000e+03,1.2382e-07
5.4100e+03,1.2385e-07
5.4200e+03,1.2388e-07
5.4300e+03,1.2391e-07
5.4400e+03,1.2394e-07
5.4500e+03,1.2396e-07
5.4600e+03,1.2398e-07
5.4700e+03,1.2400e-07
5.4800e+03,1.2402e-07
5.4900e+03,1.2404e-07
5.5000e+03,1.2405e-07
5.5100e+03,1.2406e-07
5.5200e+03,1.2407e-07
5.5300e+03,1.2407e-07
5.5400e+03,1.2408e-07
5.5500e+03,1.2408e-07
5.5600e+03,1.2408e-07
5.5700e+03,1.2408e-07
5.5800e+03,1.2407e-07
5.5900e+03,1.2407e-07
5.6000e+03,1.2407e-07
5.6100e+03,1.2406e-07
5.6200e+03,1.2406e-07
5.6300e+03,1.2405e-07
5.6400e+03,1.2404e-07
5.6500e+03,1.2404e-07
5.6600e+03,1.2403e-07
5.6700e+03,1.2403e-07
5.6800e+03,1.2402e-07
5.6900e+03,1.2402e-07
5.7000e+03,1.2402e-07
5.7100e+03,1.2401e-07
5.7200e+03,1.2401e-07
5.7300e+03,1.2401e-07
5.7400e+03,1.2401e-07
5.7500e+03,1.2401e-07
5.7600e+03,1.2400e-07
5.7700e+03,1.2400e-07
5.7800e+03,1.2400e-07
5.7900e+03,1.2399e-07
5.8000e+03,1.2399e-07
5.8100e+03,1.2398e-07
5.8200e+03,1.2397e-07
5.8300e+03,1.2396e-07
5.8400e+03,1.2394e-07
5.8500e+03,1.2393e-07
5.8600e+03,1.2391e-07
5.8700e+03,1.2389e-07
5.8800e+03,1.2386e-07
5.8900e+03,1.2384e-07
5.9000e+03,1.2381e-07
5.9100e+03,1.2378e-07
5.9200e+03,1.2375e-07
5.9300e+03,1.2371e-07
5.9400e+03,1.2368e-07
5.9500e+03,1.2364e-07
5.9600e+03,1.2361e-07
5.9700e+03,1.2357e-07
5.9800e+03,1.2353e-07
5.9900e+03,1.2350e-07
6.0000e+03,1.2347e-07
6.0100e+03,1.2343e-07
6.0200e+03,1.2340e-07
6.0300e+03,1.2337e-07
6.0400e+03,1.2335e-07
6.0500e+03,1.2332e-07
6.0600e+03,1.2330e-07
6.0700e+03,1.2328e-07
6.0800e+03,1.2327e-07
6.0900e+03,1.2326e-07
6.1000e+03,1.2325e-07
6.1100e+03,1.2324e-07
6.1200e+03,1.2323e-07
6.1300e+03,1.2323e-07
6.1400e+03,1.2322e-07
6.1500e+03,1.2322e-07
6.1600e+03,1.2322e-07
6.1700e+03,1.2321e-07
6.1800e+03,1.2321e-07
6.1900e+03,1.2321e-07
6.2000e+03,1.2320e-07
6.2100e+03,1.2319e-07
6.2200e+03,1.2318e-07
6.2300e+03,1.2317e-07
6.2400e+03,1.2315e-07
6.2500e+03,1.2313e-07
6.2600e+03,1.2311e-07
6.2700e+03,1.2308e-07
6.2800e+03,1.2306e-07
6.2900e+03,1.2302e-07
6.3000e+03,1.2299e-07
6.3100e+03,1.2295e-07
6.3200e+03,1.2292e-07
6.3300e+03,1.2288e-07
6.3400e+03,1.2283e-07
6.3500e+03,1.2279e-07
6.3600e+03,1.2275e-07
6.3700e+03,1.2271e-07
6.3800e+03,1.2267e-07
6.3900e+03,1.2263e-07
6.4000e+03,1.2259e-07
6.4100e+03,1.2255e-07
6.4200e+03,1.2252e-07
6.4300e+03,1.2249e-07
6.4400e+03,1.2246e-07
6.4500e+03,1.2244e-07
6.4600e+03,1.2241e-07
6.4700e+03,1.2240e-07
6.4800e+03,1.2238e-07
6.4900e+03,1.2237e-07
6.5000e+03,1.2236e-07
6.5100e+03,1.2236e-07
6.5200e+03,1.2236e-07
6.5300e+03,1.2236e-07
6.5400e+03,1.2236e-07
6.5500e+03,1.2237e-07
6.5600e+03,1.2238e-07
6.5700e+03,1.2239e-07
6.5800e+03,1.2240e-07
6.5900e+03,1.2241e-07
6.6000e+03,1.2242e-07
6.6100e+03,1.2244e-07
6.6200e+03,1.2245e-07
6.6300e+03,1.2246e-07
6.6400e+03,1.2247e-07
6.6500e+03,1.2248e-07
6.6600e+03,1.2249e-07
6.6700e+03,1.2249e-07
6.6800e+03,1.2249e-07
6.6900e+03,1.2249e-07
6.7000e+03,1.2249e-07
6.7100e+03,1.2248e-07
6.7200e+03,1.2247e-07
6.7300e+03,1.2245e-07
6.7400e+03,1.2244e-07
6.7500e+03,1.2242e-07
6.7600e+03,1.2239e-07
6.7700e+03,1.2236e-07
6.7800e+03,1.2233e-07
6.7900e+03,1.2229e-07
6.8000e+03,1.2225e-07
6.8100e+03,1.2221e-07
6.8200e+03,1.2217e-07
6.8300e+03,1.2212e-07
6.8400e+03,1.2207e-07
6.8500e+03,1.2202e-07
6.8600e+03,1.2196e-07
6.8700e+03,1.2191e-07
6.8800e+03,1.2185e-07
6.8900e+03,1.2180e-07
6.9000e+03,1.2174e-07
6.9100e+03,1.2168e-07
6.9200e+03,1.2163e-07
6.9300e+03,1.2157e-07
6.9400e+03,1.2152e-07
6.9500e+03,1.2147e-07
6.9600e+03,1.2142e-07
6.9700e+03,1.2138e-07
6.9800e+03,1.2133e-07
6.9900e+03,1.2130e-07
7.0000e+03,1.2126e-07
7.0100e+03,1.2123e-07
7.0200e+03,1.2121e-07
7.0300e+03,1.2118e-07
7.0400e+03,1.2117e-07
7.0500e+03,1.2116e-07
7.0600e+03,1.2115e-07
7.0700e+03,1.2115e-07
7.0800e+03,1.2115e-07
7.0900e+03,1.2116e-07
7.1000e+03,1.2118e-07
7.1100e+03,1.2120e-07
7.1200e+03,1.2123e-07
7.1300e+03,1.2126e-07
7.1400e+03,1.2129e-07
7.1500e+03,1.2133e-07
7.1600e+03,1.2138e-07
7.1700e+03,1.2143e-07
7.1800e+03,1.2149e-07
7.1900e+03,1.2154e-07
7.2000e+03,1.2161e-07
7.2100e+03,1.2167e-07
7.2200e+03,1.2174e-07
7.2300e+03,1.2181e-07
7.2400e+03,1.2189e-07
7.2500e+03,1.2197e-07
7.2600e+03,1.2205e-07
7.2700e+03,1.2213e-07
7.2800e+03,1.2221e-07
7.2900e+03,1.2229e-07
7.3000e+03,1.2238e-07
7.3100e+03,1.2246e-07
7.3200e+03,1.2255e-07
7.3300e+03,1.2264e-07
7.3400e+03,1.2272e-07
7.3500e+03,1.2281e-07
7.3600e+03,1.2289e-07
7.3700e+03,1.2298e-07
7.3800e+03,1.2306e-07
7.3900e+03,1.2314e-07
7.4000e+03,1.2322e-07
7.4100e+03,1.2330e-07
7.4200e+03,1.2338e-07
7.4300e+03,1.2345e-07
7.4400e+03,1.2352e-07
7.4500e+03,1.2359e-07
7.4600e+03,1.2365e-07
7.4700e+03,1.2372e-07
7.4800e+03,1.2378e-07
7.4900e+03,1.2383e-07
7.5000e+03,1.2388e-07
7.5100e+03,1.2393e-07
7.5200e+03,1.2397e-07
7.5300e+03,1.2401e-07
7.5400e+03,1.2405e-07
7.5500e+03,1.2408e-07
7.5600e+03,1.2410e-07
7.5700e+03,1.2413e-07
7.5800e+03,1.2414e-07
7.5900e+03,1.2416e-07
7.6000e+03,1.2417e-07
7.6100e+03,1.2417e-07
7.6200e+03,1.2417e-07
7.6300e+03,1.2417e-07
7.6400e+03,1.2416e-07
7.6500e+03,1.2415e-07
7.6600e+03,1.2413e-07
7.6700e+03,1.2411e-07
7.6800e+03,1.2409e-07
7.6900e+03,1.2406e-07
7.7000e+03,1.2403e-07
7.7100e+03,1.2400e-07
7.7200e+03,1.2396e-07
7.7300e+03,1.2392e-07
7.7400e+03,1.2388e-07
7.7500e+03,1.2383e-07
7.7600e+03,1.2379e-07
7.7700e+03,1.2374e-07
7.7800e+03,1.2369e-07
7.7900e+03,1.2364e-07
7.8000e+03,1.2358e-07
7.8100e+03,1.2353e-07
7.8200e+03,1.2348e-07
7.8300e+03,1.2342e-07
7.8400e+03,1.2337e-07
7.8500e+03,1.2332e-07
7.8600e+03,1.2327e-07
7.8700e+03,1.2322e-07
7.8800e+03,1.2317e-07
7.8900e+03,1.2313e-07
7.9000e+03,1.2309e-07
7.9100e+03,1.2305e-07
7.9200e+03,1.2301e-07
7.9300e+03,1.2298e-07
7.9400e+03,1.2296e-07
7.9500e+03,1.2294e-07
7.9600e+03,1.2292e-07
7.9700e+03,1.2291e-07
7.9800e+03,1.2291e-07
7.9900e+03,1.2291e-07
8.0000e+03,1.2292e-07
8.0100e+03,1.2294e-07
8.0200e+03,1.2296e-07
8.0300e+03,1.2299e-07
8.0400e+03,1.2303e-07
8.0500e+03,1.2307e-07
8.0600e+03,1.2312e-07
8.0700e+03,1.2317e-07
8.0800e+03,1.2324e-07
8.0900e+03,1.2330e-07
8.1000e+03,1.2337e-07
8.1100e+03,1.2345e-07
8.1200e+03,1.2353e-07
8.1300e+03,1.2362e-07
8.1400e+03,1.2370e-07
8.1500e+03,1.2379e-07
8.1600e+03,1.2389e-07
8.1700e+03,1.2398e-07
8.1800e+03,1.2407e-07
8.1900e+03,1.2416e-07
8.2000e+03,1.2425e-07
8.2100e+03,1.2434e-07
8.2200e+03,1.2442e-07
8.2300e+03,1.2450e-07
8.2400e+03,1.2457e-07
8.2500e+03,1.2464e-07
8.2600e+03,1.2470e-07
8.2700e+03,1.2475e-07
8.2800e+03,1.2479e-07
8.2900e+03,1.2482e-07
8.3000e+03,1.2484e-07
8.3100e+03,1.2486e-07
8.3200e+03,1.2486e-07
8.3300e+03,1.2484e-07
8.3400e+03,1.2482e-07
8.3500e+03,1.2478e-07
8.3600e+03,1.2473e-07
8.3700e+03,1.2467e-07
8.3800e+03,1.2460e-07
8.3900e+03,1.2451e-07
8.4000e+03,1.2441e-07
8.4100e+03,1.2430e-07
8.4200e+03,1.2417e-07
8.4300e+03,1.2403e-07
8.4400e+03,1.2388e-07
8.4500e+03,1.2372e-07
8.4600e+03,1.2355e-07
8.4700e+03,1.2337e-07
8.4800e+03,1.2317e-07
8.4900e+03,1.2297e-07
8.5000e+03,1.2276e-07
8.5100e+03,1.2255e-07
8.5200e+03,1.2232e-07
8.5300e+03,1.2209e-07
8.5400e+03,1.2186e-07
8.5500e+03,1.2162e-07
8.5600e+03,1.2138e-07
8.5700e+03,1.2113e-07
8.5800e+03,1.2089e-07
8.5900e+03,1.2064e-07
8.6000e+03,1.2039e-07
8.6100e+03,1.2014e-07
8.6200e+03,1.1989e-07
8.6300e+03,1.1965e-07
8.6400e+03,1.1941e-07
8.6500e+03,1.1917e-07
8.6600e+03,1.1893e-07
8.6700e+03,1.1870e-07
8.6800e+03,1.1848e-07
8.6900e+03,1.1826e-07
8.7000e+03,1.1805e-07
8.7100e+03,1.1785e-07
8.7200e+03,1.1765e-07
8.7300e+03,1.1746e-07
8.7400e+03,1.1729e-07
8.7500e+03,1.1712e-07
8.7600e+03,1.1696e-07
8.7700e+03,1.1681e-07
8.7800e+03,1.1667e-07
8.7900e+03,1.1654e-07
8.8000e+03,1.1642e-07
8.8100e+03,1.1632e-07
8.8200e+03,1.1623e-07
8.8300e+03,1.1615e-07
8.8400e+03,1.1608e-07
8.8500e+03,1.1603e-07
8.8600e+03,1.1599e-07
8.8700e+03,1.1596e-07
8.8800e+03,1.1595e-07
8.8900e+03,1.1595e-07
8.9000e+03,1.1597e-07
8.9100e+03,1.1600e-07
8.9200e+03,1.1605e-07
8.9300e+03,1.1611e-07
8.9400e+03,1.1619e-07
8.9500e+03,1.1628e-07
8.9600e+03,1.1639e-07
8.9700e+03,1.1651e-07
8.9800e+03,1.1665e-07
8.9900e+03,1.1680e-07
9.0000e+03,1.1697e-07
9.0100e+03,1.1715e-07
9.0200e+03,1.1734e-07
9.0300e+03,1.1755e-07
9.0400e+03,1.1776e-07
9.0500e+03,1.1799e-07
9.0600e+03,1.1823e-07
9.0700e+03,1.1848e-07
