# Time , Side-Flux
0.0000e+00,0.0000e+00
1.0000e+01,1.1514e-04
2.0000e+01,2.1187e-04
3.0000e+01,2.8351e-04
4.0000e+01,3.3322e-04
5.0000e+01,3.6705e-04
6.0000e+01,3.9017e-04
7.0000e+01,4.0618e-04
8.0000e+01,4.1741e-04
9.0000e+01,4.2536e-04
1.0000e+02,4.3102e-04
1.1000e+02,4.3505e-04
1.2000e+02,4.3792e-04
1.3000e+02,4.3995e-04
1.4000e+02,4.4137e-04
1.5000e+02,4.4237e-04
1.6000e+02,4.4304e-04
1.7000e+02,4.4350e-04
1.8000e+02,4.4380e-04
1.9000e+02,4.4400e-04
2.0000e+02,4.4412e-04
2.1000e+02,4.4419e-04
2.2000e+02,4.4423e-04
2.3000e+02,4.4426e-04
2.4000e+02,4.4427e-04
2.5000e+02,4.4427e-04
2.6000e+02,4.4427e-04
2.7000e+02,4.4427e-04
2.8000e+02,4.4426e-04
2.9000e+02,4.4425e-04
3.0000e+02,4.4425e-04
3.1000e+02,4.4424e-04
3.2000e+02,4.4423e-04
3.3000e+02,4.4422e-04
3.4000e+02,4.4420e-04
3.5000e+02,4.4418e-04
3.6000e+02,4.4417e-04
3.7000e+02,4.4418e-04
3.8000e+02,4.4417e-04
3.9000e+02,4.4412e-04
4.0000e+02,4.4401e-04
4.1000e+02,4.4388e-04
4.2000e+02,4.4377e-04
4.3000e+02,4.4369e-04
4.4000e+02,4.4364e-04
4.5000e+02,4.4362e-04
4.6000e+02,4.4359e-04
4.7000e+02,4.4355e-04
4.8000e+02,4.4351e-04
4.9000e+02,4.4347e-04
5.0000e+02,4.4343e-04
5.1000e+02,4.4338e-04
5.2000e+02,4.4334e-04
5.3000e+02,4.4330e-04
5.4000e+02,4.4326e-04
5.5000e+02,4.4322e-04
5.6000e+02,4.4318e-04
5.7000e+02,4.4310e-04
5.8000e+02,4.4298e-04
5.9000e+02,4.4276e-04
6.0000e+02,4.4239e-04
6.1000e+02,4.4184e-04
6.2000e+02,4.4115e-04
6.3000e+02,4.4034e-04
6.4000e+02,4.3938e-04
6.5000e+02,4.3817e-04
6.6000e+02,4.3663e-04
6.7000e+02,4.3482e-04
6.8000e+02,4.3295e-04
6.9000e+02,4.3122e-04
7.0000e+02,4.2967e-04
7.1000e+02,4.2812e-04
7.2000e+02,4.2636e-04
7.3000e+02,4.2429e-04
7.4000e+02,4.2202e-04
7.5000e+02,4.1980e-04
7.6000e+02,4.1792e-04
7.7000e+02,4.1659e-04
7.8000e+02,4.1584e-04
7.9000e+02,4.1545e-04
8.0000e+02,4.1501e-04
8.1000e+02,4.1412e-04
8.2000e+02,4.1256e-04
8.3000e+02,4.1036e-04
8.4000e+02,4.0786e-04
8.5000e+02,4.0555e-04
8.6000e+02,4.0385e-04
8.7000e+02,4.0288e-04
8.8000e+02,4.0253e-04
8.9000e+02,4.0265e-04
9.0000e+02,4.0299e-04
9.1000e+02,4.0311e-04
9.2000e+02,4.0246e-04
9.3000e+02,4.0074e-04
9.4000e+02,3.9791e-04
9.5000e+02,3.9407e-04
9.6000e+02,3.8944e-04
9.7000e+02,3.8433e-04
9.8000e+02,3.7936e-04
9.9000e+02,3.7531e-04
1.0000e+03,3.7278e-04
1.0100e+03,3.7198e-04
1.0200e+03,3.7263e-04
1.0300e+03,3.7397e-04
1.0400e+03,3.7527e-04
1.0500e+03,3.7601e-04
1.0600e+03,3.7577e-04
1.0700e+03,3.7421e-04
1.0800e+03,3.7113e-04
1.0900e+03,3.6647e-04
1.1000e+03,3.6051e-04
1.1100e+03,3.5398e-04
1.1200e+03,3.4769e-04
1.1300e+03,3.4213e-04
1.1400e+03,3.3750e-04
1.1500e+03,3.3389e-04
1.1600e+03,3.3126e-04
1.1700e+03,3.2942e-04
1.1800e+03,3.2818e-04
1.1900e+03,3.2748e-04
1.2000e+03,3.2729e-04
1.2100e+03,3.2750e-04
1.2200e+03,3.2797e-04
1.2300e+03,3.2857e-04
1.2400e+03,3.2915e-04
1.2500e+03,3.2951e-04
1.2600e+03,3.2945e-04
1.2700e+03,3.2897e-04
1.2800e+03,3.2822e-04
1.2900e+03,3.2739e-04
1.3000e+03,3.2660e-04
1.3100e+03,3.2587e-04
1.3200e+03,3.2522e-04
1.3300e+03,3.2461e-04
1.3400e+03,3.2394e-04
1.3500e+03,3.2302e-04
1.3600e+03,3.2170e-04
1.3700e+03,3.2004e-04
1.3800e+03,3.1828e-04
1.3900e+03,3.1669e-04
1.4000e+03,3.1540e-04
1.4100e+03,3.1443e-04
1.4200e+03,3.1372e-04
1.4300e+03,3.1319e-04
1.4400e+03,3.1283e-04
1.4500e+03,3.1265e-04
1.4600e+03,3.1258e-04
1.4700e+03,3.1253e-04
1.4800e+03,3.1246e-04
1.4900e+03,3.1236e-04
1.5000e+03,3.1225e-04
1.5100e+03,3.1212e-04
1.5200e+03,3.1200e-04
1.5300e+03,3.1187e-04
1.5400e+03,3.1177e-04
1.5500e+03,3.1169e-04
1.5600e+03,3.1164e-04
1.5700e+03,3.1162e-04
1.5800e+03,3.1160e-04
1.5900e+03,3.1159e-04
1.6000e+03,3.1157e-04
1.6100e+03,3.1155e-04
1.6200e+03,3.1153e-04
1.6300e+03,3.1150e-04
1.6400e+03,3.1144e-04
1.6500e+03,3.1133e-04
1.6600e+03,3.1117e-04
1.6700e+03,3.1100e-04
1.6800e+03,3.1087e-04
1.6900e+03,3.1079e-04
1.7000e+03,3.1073e-04
1.7100e+03,3.1058e-04
1.7200e+03,3.1031e-04
1.7300e+03,3.0991e-04
1.7400e+03,3.0945e-04
1.7500e+03,3.0901e-04
1.7600e+03,3.0871e-04
1.7700e+03,3.0862e-04
1.7800e+03,3.0876e-04
1.7900e+03,3.0905e-04
1.8000e+03,3.0930e-04
1.8100e+03,3.0929e-04
1.8200e+03,3.0882e-04
1.8300e+03,3.0782e-04
1.8400e+03,3.0636e-04
1.8500e+03,3.0464e-04
1.8600e+03,3.0292e-04
1.8700e+03,3.0142e-04
1.8800e+03,3.0024e-04
1.8900e+03,2.9932e-04
1.9000e+03,2.9857e-04
1.9100e+03,2.9787e-04
1.9200e+03,2.9720e-04
1.9300e+03,2.9660e-04
1.9400e+03,2.9613e-04
1.9500e+03,2.9581e-04
1.9600e+03,2.9565e-04
1.9700e+03,2.9564e-04
1.9800e+03,2.9579e-04
1.9900e+03,2.9599e-04
2.0000e+03,2.9615e-04
2.0100e+03,2.9620e-04
2.0200e+03,2.9618e-04
2.0300e+03,2.9611e-04
2.0400e+03,2.9600e-04
2.0500e+03,2.9581e-04
2.0600e+03,2.9551e-04
2.0700e+03,2.9509e-04
2.0800e+03,2.9456e-04
2.0900e+03,2.9389e-04
2.1000e+03,2.9312e-04
2.1100e+03,2.9228e-04
2.1200e+03,2.9135e-04
2.1300e+03,2.9013e-04
2.1400e+03,2.8844e-04
2.1500e+03,2.8628e-04
2.1600e+03,2.8373e-04
2.1700e+03,2.8074e-04
2.1800e+03,2.7721e-04
2.1900e+03,2.7326e-04
2.2000e+03,2.6924e-04
2.2100e+03,2.6554e-04
2.2200e+03,2.6228e-04
2.2300e+03,2.5936e-04
2.2400e+03,2.5650e-04
2.2500e+03,2.5353e-04
2.2600e+03,2.5050e-04
2.2700e+03,2.4774e-04
2.2800e+03,2.4559e-04
2.2900e+03,2.4418e-04
2.3000e+03,2.4336e-04
2.3100e+03,2.4300e-04
2.3200e+03,2.4308e-04
2.3300e+03,2.4357e-04
2.3400e+03,2.4424e-04
2.3500e+03,2.4478e-04
2.3600e+03,2.4510e-04
2.3700e+03,2.4523e-04
2.3800e+03,2.4520e-04
2.3900e+03,2.4502e-04
2.4000e+03,2.4479e-04
2.4100e+03,2.4454e-04
2.4200e+03,2.4426e-04
2.4300e+03,2.4394e-04
2.4400e+03,2.4370e-04
2.4500e+03,2.4368e-04
2.4600e+03,2.4385e-04
2.4700e+03,2.4399e-04
2.4800e+03,2.4390e-04
2.4900e+03,2.4354e-04
2.5000e+03,2.4304e-04
2.5100e+03,2.4256e-04
2.5200e+03,2.4212e-04
2.5300e+03,2.4170e-04
2.5400e+03,2.4125e-04
2.5500e+03,2.4072e-04
2.5600e+03,2.4007e-04
2.5700e+03,2.3926e-04
2.5800e+03,2.3836e-04
2.5900e+03,2.3752e-04
2.6000e+03,2.3689e-04
2.6100e+03,2.3655e-04
2.6200e+03,2.3647e-04
2.6300e+03,2.3653e-04
2.6400e+03,2.3662e-04
2.6500e+03,2.3666e-04
2.6600e+03,2.3662e-04
2.6700e+03,2.3652e-04
2.6800e+03,2.3639e-04
2.6900e+03,2.3621e-04
2.7000e+03,2.3598e-04
2.7100e+03,2.3566e-04
2.7200e+03,2.3524e-04
2.7300e+03,2.3466e-04
2.7400e+03,2.3393e-04
2.7500e+03,2.3311e-04
2.7600e+03,2.3230e-04
2.7700e+03,2.3158e-04
2.7800e+03,2.3103e-04
2.7900e+03,2.3066e-04
2.8000e+03,2.3038e-04
2.8100e+03,2.3010e-04
2.8200e+03,2.2972e-04
2.8300e+03,2.2924e-04
2.8400e+03,2.2867e-04
2.8500e+03,2.2804e-04
2.8600e+03,2.2737e-04
2.8700e+03,2.2665e-04
2.8800e+03,2.2584e-04
2.8900e+03,2.2486e-04
2.9000e+03,2.2363e-04
2.9100e+03,2.2212e-04
2.9200e+03,2.2041e-04
2.9300e+03,2.1871e-04
2.9400e+03,2.1721e-04
2.9500e+03,2.1595e-04
2.9600e+03,2.1483e-04
2.9700e+03,2.1369e-04
2.9800e+03,2.1235e-04
2.9900e+03,2.1060e-04
3.0000e+03,2.0832e-04
3.0100e+03,2.0568e-04
3.0200e+03,2.0304e-04
3.0300e+03,2.0077e-04
3.0400e+03,1.9898e-04
3.0500e+03,1.9758e-04
3.0600e+03,1.9661e-04
3.0700e+03,1.9610e-04
3.0800e+03,1.9581e-04
3.0900e+03,1.9513e-04
3.1000e+03,1.9345e-04
3.1100e+03,1.9070e-04
3.1200e+03,1.8743e-04
3.1300e+03,1.8439e-04
3.1400e+03,1.8211e-04
3.1500e+03,1.8065e-04
3.1600e+03,1.7984e-04
3.1700e+03,1.7959e-04
3.1800e+03,1.7987e-04
3.1900e+03,1.8051e-04
3.2000e+03,1.8111e-04
3.2100e+03,1.8137e-04
3.2200e+03,1.8124e-04
3.2300e+03,1.8087e-04
3.2400e+03,1.8041e-04
3.2500e+03,1.7990e-04
3.2600e+03,1.7941e-04
3.2700e+03,1.7900e-04
3.2800e+03,1.7871e-04
3.2900e+03,1.7851e-04
3.3000e+03,1.7835e-04
3.3100e+03,1.7821e-04
3.3200e+03,1.7810e-04
3.3300e+03,1.7800e-04
3.3400e+03,1.7790e-04
3.3500e+03,1.7782e-04
3.3600e+03,1.7776e-04
3.3700e+03,1.7775e-04
3.3800e+03,1.7773e-04
3.3900e+03,1.7769e-04
3.4000e+03,1.7758e-04
3.4100e+03,1.7741e-04
3.4200e+03,1.7715e-04
3.4300e+03,1.7683e-04
3.4400e+03,1.7646e-04
3.4500e+03,1.7609e-04
3.4600e+03,1.7580e-04
3.4700e+03,1.7562e-04
3.4800e+03,1.7543e-04
3.4900e+03,1.7507e-04
3.5000e+03,1.7442e-04
3.5100e+03,1.7358e-04
3.5200e+03,1.7273e-04
3.5300e+03,1.7199e-04
3.5400e+03,1.7139e-04
3.5500e+03,1.7098e-04
3.5600e+03,1.7074e-04
3.5700e+03,1.7063e-04
3.5800e+03,1.7059e-04
3.5900e+03,1.7058e-04
3.6000e+03,1.7058e-04
3.6100e+03,1.7053e-04
3.6200e+03,1.7037e-04
3.6300e+03,1.7012e-04
3.6400e+03,1.6982e-04
3.6500e+03,1.6955e-04
3.6600e+03,1.6941e-04
3.6700e+03,1.6947e-04
3.6800e+03,1.6969e-04
3.6900e+03,1.6997e-04
3.7000e+03,1.7024e-04
3.7100e+03,1.7043e-04
3.7200e+03,1.7048e-04
3.7300e+03,1.7036e-04
3.7400e+03,1.7004e-04
3.7500e+03,1.6950e-04
3.7600e+03,1.6880e-04
3.7700e+03,1.6808e-04
3.7800e+03,1.6746e-04
3.7900e+03,1.6707e-04
3.8000e+03,1.6691e-04
3.8100e+03,1.6692e-04
3.8200e+03,1.6702e-04
3.8300e+03,1.6715e-04
3.8400e+03,1.6726e-04
3.8500e+03,1.6726e-04
3.8600e+03,1.6716e-04
3.8700e+03,1.6700e-04
3.8800e+03,1.6687e-04
3.8900e+03,1.6680e-04
3.9000e+03,1.6674e-04
3.9100e+03,1.6655e-04
3.9200e+03,1.6610e-04
3.9300e+03,1.6534e-04
3.9400e+03,1.6436e-04
3.9500e+03,1.6332e-04
3.9600e+03,1.6241e-04
3.9700e+03,1.6185e-04
3.9800e+03,1.6174e-04
3.9900e+03,1.6201e-04
4.0000e+03,1.6234e-04
4.0100e+03,1.6233e-04
4.0200e+03,1.6166e-04
4.0300e+03,1.6021e-04
4.0400e+03,1.5800e-04
4.0500e+03,1.5522e-04
4.0600e+03,1.5222e-04
4.0700e+03,1.4935e-04
4.0800e+03,1.4697e-04
4.0900e+03,1.4533e-04
4.1000e+03,1.4445e-04
4.1100e+03,1.4408e-04
4.1200e+03,1.4376e-04
4.1300e+03,1.4303e-04
4.1400e+03,1.4171e-04
4.1500e+03,1.3995e-04
4.1600e+03,1.3808e-04
4.1700e+03,1.3643e-04
4.1800e+03,1.3524e-04
4.1900e+03,1.3459e-04
4.2000e+03,1.3444e-04
4.2100e+03,1.3463e-04
4.2200e+03,1.3498e-04
4.2300e+03,1.3534e-04
4.2400e+03,1.3562e-04
4.2500e+03,1.3578e-04
4.2600e+03,1.3587e-04
4.2700e+03,1.3594e-04
4.2800e+03,1.3595e-04
4.2900e+03,1.3575e-04
4.3000e+03,1.3525e-04
4.3100e+03,1.3451e-04
4.3200e+03,1.3363e-04
4.3300e+03,1.3271e-04
4.3400e+03,1.3183e-04
4.3500e+03,1.3107e-04
4.3600e+03,1.3054e-04
4.3700e+03,1.3031e-04
4.3800e+03,1.3037e-04
4.3900e+03,1.3052e-04
4.4000e+03,1.3047e-04
4.4100e+03,1.2997e-04
4.4200e+03,1.2890e-04
4.4300e+03,1.2735e-04
4.4400e+03,1.2545e-04
4.4500e+03,1.2333e-04
4.4600e+03,1.2111e-04
4.4700e+03,1.1903e-04
4.4800e+03,1.1732e-04
4.4900e+03,1.1614e-04
4.5000e+03,1.1553e-04
4.5100e+03,1.1544e-04
4.5200e+03,1.1581e-04
4.5300e+03,1.1650e-04
4.5400e+03,1.1729e-04
4.5500e+03,1.1801e-04
4.5600e+03,1.1855e-04
4.5700e+03,1.1891e-04
4.5800e+03,1.1908e-04
4.5900e+03,1.1912e-04
4.6000e+03,1.1911e-04
4.6100e+03,1.1917e-04
4.6200e+03,1.1939e-04
4.6300e+03,1.1979e-04
4.6400e+03,1.2029e-04
4.6500e+03,1.2075e-04
4.6600e+03,1.2103e-04
4.6700e+03,1.2112e-04
4.6800e+03,1.2103e-04
4.6900e+03,1.2082e-04
4.7000e+03,1.2052e-04
4.7100e+03,1.2022e-04
4.7200e+03,1.2004e-04
4.7300e+03,1.2009e-04
4.7400e+03,1.2034e-04
4.7500e+03,1.2069e-04
4.7600e+03,1.2101e-04
4.7700e+03,1.2119e-04
4.7800e+03,1.2120e-04
4.7900e+03,1.2106e-04
4.8000e+03,1.2074e-04
4.8100e+03,1.2017e-04
4.8200e+03,1.1936e-04
4.8300e+03,1.1834e-04
4.8400e+03,1.1722e-04
4.8500e+03,1.1614e-04
4.8600e+03,1.1523e-04
4.8700e+03,1.1458e-04
4.8800e+03,1.1411e-04
4.8900e+03,1.1367e-04
4.9000e+03,1.1312e-04
4.9100e+03,1.1243e-04
4.9200e+03,1.1171e-04
4.9300e+03,1.1108e-04
4.9400e+03,1.1059e-04
4.9500e+03,1.1022e-04
4.9600e+03,1.0992e-04
4.9700e+03,1.0962e-04
4.9800e+03,1.0931e-04
4.9900e+03,1.0910e-04
5.0000e+03,1.0909e-04
5.0100e+03,1.0935e-04
5.0200e+03,1.0985e-04
5.0300e+03,1.1050e-04
5.0400e+03,1.1124e-04
5.0500e+03,1.1205e-04
5.0600e+03,1.1295e-04
5.0700e+03,1.1384e-04
5.0800e+03,1.1451e-04
5.0900e+03,1.1467e-04
5.1000e+03,1.1424e-04
5.1100e+03,1.1344e-04
5.1200e+03,1.1248e-04
5.1300e+03,1.1134e-04
5.1400e+03,1.0978e-04
5.1500e+03,1.0754e-04
5.1600e+03,1.0461e-04
5.1700e+03,1.0122e-04
5.1800e+03,9.7702e-05
5.1900e+03,9.4303e-05
5.2000e+03,9.1188e-05
5.2100e+03,8.8497e-05
5.2200e+03,8.6354e-05
5.2300e+03,8.4846e-05
5.2400e+03,8.3971e-05
5.2500e+03,8.3652e-05
5.2600e+03,8.3778e-05
5.2700e+03,8.4229e-05
5.2800e+03,8.4957e-05
5.2900e+03,8.6007e-05
5.3000e+03,8.7356e-05
5.3100e+03,8.8720e-05
5.3200e+03,8.9619e-05
5.3300e+03,8.9712e-05
5.3400e+03,8.9050e-05
5.3500e+03,8.7979e-05
5.3600e+03,8.6863e-05
5.3700e+03,8.5906e-05
5.3800e+03,8.5227e-05
5.3900e+03,8.5005e-05
5.4000e+03,8.5414e-05
5.4100e+03,8.6494e-05
5.4200e+03,8.8193e-05
5.4300e+03,9.0380e-05
5.4400e+03,9.2826e-05
5.4500e+03,9.5280e-05
5.4600e+03,9.7484e-05
5.4700e+03,9.9161e-05
5.4800e+03,1.0016e-04
5.4900e+03,1.0065e-04
5.5000e+03,1.0097e-04
5.5100e+03,1.0135e-04
5.5200e+03,1.0173e-04
5.5300e+03,1.0197e-04
5.5400e+03,1.0199e-04
5.5500e+03,1.0173e-04
5.5600e+03,1.0111e-04
5.5700e+03,1.0014e-04
5.5800e+03,9.8929e-05
5.5900e+03,9.7695e-05
5.6000e+03,9.6518e-05
5.6100e+03,9.5365e-05
5.6200e+03,9.4237e-05
5.6300e+03,9.3214e-05
5.6400e+03,9.2366e-05
5.6500e+03,9.1713e-05
5.6600e+03,9.1284e-05
5.6700e+03,9.1153e-05
5.6800e+03,9.1371e-05
5.6900e+03,9.1866e-05
5.7000e+03,9.2459e-05
5.7100e+03,9.2950e-05
5.7200e+03,9.3240e-05
5.7300e+03,9.3412e-05
5.7400e+03,9.3700e-05
5.7500e+03,9.4353e-05
5.7600e+03,9.5499e-05
5.7700e+03,9.7037e-05
5.7800e+03,9.8709e-05
5.7900e+03,1.0030e-04
5.8000e+03,1.0177e-04
5.8100e+03,1.0329e-04
5.8200e+03,1.0504e-04
5.8300e+03,1.0694e-04
5.8400e+03,1.0869e-04
5.8500e+03,1.0991e-04
5.8600e+03,1.1041e-04
5.8700e+03,1.1027e-04
5.8800e+03,1.0984e-04
5.8900e+03,1.0945e-04
5.9000e+03,1.0921e-04
5.9100e+03,1.0904e-04
5.9200e+03,1.0886e-04
5.9300e+03,1.0869e-04
5.9400e+03,1.0860e-04
5.9500e+03,1.0865e-04
5.9600e+03,1.0888e-04
5.9700e+03,1.0930e-04
5.9800e+03,1.0985e-04
5.9900e+03,1.1046e-04
6.0000e+03,1.1108e-04
6.0100e+03,1.1170e-04
6.0200e+03,1.1235e-04
6.0300e+03,1.1302e-04
6.0400e+03,1.1376e-04
6.0500e+03,1.1465e-04
6.0600e+03,1.1570e-04
6.0700e+03,1.1684e-04
6.0800e+03,1.1793e-04
6.0900e+03,1.1892e-04
6.1000e+03,1.1989e-04
6.1100e+03,1.2097e-04
6.1200e+03,1.2231e-04
6.1300e+03,1.2395e-04
6.1400e+03,1.2575e-04
6.1500e+03,1.2748e-04
6.1600e+03,1.2893e-04
6.1700e+03,1.3003e-04
6.1800e+03,1.3084e-04
6.1900e+03,1.3150e-04
6.2000e+03,1.3203e-04
6.2100e+03,1.3240e-04
6.2200e+03,1.3264e-04
6.2300e+03,1.3283e-04
6.2400e+03,1.3302e-04
6.2500e+03,1.3326e-04
6.2600e+03,1.3357e-04
6.2700e+03,1.3395e-04
6.2800e+03,1.3435e-04
6.2900e+03,1.3466e-04
6.3000e+03,1.3482e-04
6.3100e+03,1.3490e-04
6.3200e+03,1.3507e-04
6.3300e+03,1.3549e-04
6.3400e+03,1.3623e-04
6.3500e+03,1.3723e-04
6.3600e+03,1.3831e-04
6.3700e+03,1.3931e-04
6.3800e+03,1.4006e-04
6.3900e+03,1.4050e-04
6.4000e+03,1.4065e-04
6.4100e+03,1.4060e-04
6.4200e+03,1.4045e-04
6.4300e+03,1.4026e-04
6.4400e+03,1.4009e-04
6.4500e+03,1.3997e-04
6.4600e+03,1.3987e-04
6.4700e+03,1.3979e-04
6.4800e+03,1.3974e-04
6.4900e+03,1.3979e-04
6.5000e+03,1.4001e-04
6.5100e+03,1.4042e-04
6.5200e+03,1.4086e-04
6.5300e+03,1.4110e-04
6.5400e+03,1.4109e-04
6.5500e+03,1.4094e-04
6.5600e+03,1.4075e-04
6.5700e+03,1.4040e-04
6.5800e+03,1.3976e-04
6.5900e+03,1.3883e-04
6.6000e+03,1.3771e-04
6.6100e+03,1.3655e-04
6.6200e+03,1.3547e-04
6.6300e+03,1.3454e-04
6.6400e+03,1.3377e-04
6.6500e+03,1.3318e-04
6.6600e+03,1.3275e-04
6.6700e+03,1.3243e-04
6.6800e+03,1.3222e-04
6.6900e+03,1.3213e-04
6.7000e+03,1.3215e-04
6.7100e+03,1.3224e-04
6.7200e+03,1.3232e-04
6.7300e+03,1.3229e-04
6.7400e+03,1.3212e-04
6.7500e+03,1.3183e-04
6.7600e+03,1.3143e-04
6.7700e+03,1.3090e-04
6.7800e+03,1.3025e-04
6.7900e+03,1.2950e-04
6.8000e+03,1.2869e-04
6.8100e+03,1.2783e-04
6.8200e+03,1.2692e-04
6.8300e+03,1.2599e-04
6.8400e+03,1.2507e-04
6.8500e+03,1.2412e-04
6.8600e+03,1.2312e-04
6.8700e+03,1.2211e-04
6.8800e+03,1.2117e-04
6.8900e+03,1.2040e-04
6.9000e+03,1.1982e-04
6.9100e+03,1.1941e-04
6.9200e+03,1.1907e-04
6.9300e+03,1.1868e-04
6.9400e+03,1.1821e-04
6.9500e+03,1.1764e-04
6.9600e+03,1.1697e-04
6.9700e+03,1.1625e-04
6.9800e+03,1.1563e-04
6.9900e+03,1.1533e-04
7.0000e+03,1.1540e-04
7.0100e+03,1.1577e-04
7.0200e+03,1.1624e-04
7.0300e+03,1.1673e-04
7.0400e+03,1.1728e-04
7.0500e+03,1.1789e-04
7.0600e+03,1.1847e-04
7.0700e+03,1.1879e-04
7.0800e+03,1.1869e-04
7.0900e+03,1.1815e-04
7.1000e+03,1.1726e-04
7.1100e+03,1.1624e-04
7.1200e+03,1.1540e-04
7.1300e+03,1.1500e-04
7.1400e+03,1.1506e-04
7.1500e+03,1.1541e-04
7.1600e+03,1.1581e-04
7.1700e+03,1.1607e-04
7.1800e+03,1.1610e-04
7.1900e+03,1.1598e-04
7.2000e+03,1.1591e-04
7.2100e+03,1.1605e-04
7.2200e+03,1.1651e-04
7.2300e+03,1.1722e-04
7.2400e+03,1.1804e-04
7.2500e+03,1.1882e-04
7.2600e+03,1.1949e-04
7.2700e+03,1.1998e-04
7.2800e+03,1.2029e-04
7.2900e+03,1.2056e-04
7.3000e+03,1.2091e-04
7.3100e+03,1.2139e-04
7.3200e+03,1.2193e-04
7.3300e+03,1.2242e-04
7.3400e+03,1.2269e-04
7.3500e+03,1.2259e-04
7.3600e+03,1.2208e-04
7.3700e+03,1.2126e-04
7.3800e+03,1.2024e-04
7.3900e+03,1.1913e-04
7.4000e+03,1.1803e-04
7.4100e+03,1.1702e-04
7.4200e+03,1.1616e-04
7.4300e+03,1.1542e-04
7.4400e+03,1.1470e-04
7.4500e+03,1.1389e-04
7.4600e+03,1.1291e-04
7.4700e+03,1.1174e-04
7.4800e+03,1.1034e-04
7.4900e+03,1.0869e-04
7.5000e+03,1.0683e-04
7.5100e+03,1.0485e-04
7.5200e+03,1.0279e-04
7.5300e+03,1.0070e-04
7.5400e+03,9.8660e-05
7.5500e+03,9.6855e-05
7.5600e+03,9.5589e-05
7.5700e+03,9.5116e-05
7.5800e+03,9.5360e-05
7.5900e+03,9.5875e-05
7.6000e+03,9.6139e-05
7.6100e+03,9.5882e-05
7.6200e+03,9.5151e-05
7.6300e+03,9.4118e-05
7.6400e+03,9.2845e-05
7.6500e+03,9.1277e-05
7.6600e+03,8.9487e-05
7.6700e+03,8.7759e-05
7.6800e+03,8.6322e-05
7.6900e+03,8.5217e-05
7.7000e+03,8.4486e-05
7.7100e+03,8.4284e-05
7.7200e+03,8.4698e-05
7.7300e+03,8.5588e-05
7.7400e+03,8.6634e-05
7.7500e+03,8.7490e-05
7.7600e+03,8.7876e-05
7.7700e+03,8.7671e-05
7.7800e+03,8.7015e-05
7.7900e+03,8.6259e-05
7.8000e+03,8.5770e-05
7.8100e+03,8.5765e-05
7.8200e+03,8.6264e-05
7.8300e+03,8.7122e-05
7.8400e+03,8.8079e-05
7.8500e+03,8.8898e-05
7.8600e+03,8.9450e-05
7.8700e+03,8.9645e-05
7.8800e+03,8.9426e-05
7.8900e+03,8.8871e-05
7.9000e+03,8.8201e-05
7.9100e+03,8.7632e-05
7.9200e+03,8.7234e-05
7.9300e+03,8.6959e-05
7.9400e+03,8.6772e-05
7.9500e+03,8.6744e-05
7.9600e+03,8.6972e-05
7.9700e+03,8.7480e-05
7.9800e+03,8.8211e-05
7.9900e+03,8.9034e-05
8.0000e+03,8.9796e-05
8.0100e+03,9.0390e-05
8.0200e+03,9.0779e-05
8.0300e+03,9.0995e-05
8.0400e+03,9.1137e-05
8.0500e+03,9.1323e-05
8.0600e+03,9.1612e-05
8.0700e+03,9.1979e-05
8.0800e+03,9.2346e-05
8.0900e+03,9.2630e-05
8.1000e+03,9.2771e-05
8.1100e+03,9.2724e-05
8.1200e+03,9.2472e-05
8.1300e+03,9.2034e-05
8.1400e+03,9.1452e-05
8.1500e+03,9.0757e-05
8.1600e+03,8.9976e-05
8.1700e+03,8.9164e-05
8.1800e+03,8.8430e-05
8.1900e+03,8.7902e-05
8.2000e+03,8.7643e-05
8.2100e+03,8.7596e-05
8.2200e+03,8.7613e-05
8.2300e+03,8.7525e-05
8.2400e+03,8.7242e-05
8.2500e+03,8.6852e-05
8.2600e+03,8.6585e-05
8.2700e+03,8.6619e-05
8.2800e+03,8.6939e-05
8.2900e+03,8.7418e-05
8.3000e+03,8.7960e-05
8.3100e+03,8.8517e-05
8.3200e+03,8.9052e-05
8.3300e+03,8.9490e-05
8.3400e+03,8.9721e-05
8.3500e+03,8.9722e-05
8.3600e+03,8.9592e-05
8.3700e+03,8.9420e-05
8.3800e+03,8.9231e-05
8.3900e+03,8.9017e-05
8.4000e+03,8.8734e-05
8.4100e+03,8.8316e-05
8.4200e+03,8.7698e-05
8.4300e+03,8.6859e-05
8.4400e+03,8.5856e-05
8.4500e+03,8.4832e-05
8.4600e+03,8.3952e-05
8.4700e+03,8.3320e-05
8.4800e+03,8.2954e-05
8.4900e+03,8.2805e-05
8.5000e+03,8.2823e-05
8.5100e+03,8.2969e-05
8.5200e+03,8.3194e-05
8.5300e+03,8.3426e-05
8.5400e+03,8.3591e-05
8.5500e+03,8.3628e-05
8.5600e+03,8.3519e-05
8.5700e+03,8.3312e-05
8.5800e+03,8.3098e-05
8.5900e+03,8.2928e-05
8.6000e+03,8.2794e-05
8.6100e+03,8.2664e-05
8.6200e+03,8.2513e-05
8.6300e+03,8.2314e-05
8.6400e+03,8.2025e-05
8.6500e+03,8.1601e-05
8.6600e+03,8.1022e-05
8.6700e+03,8.0288e-05
8.6800e+03,7.9408e-05
8.6900e+03,7.8412e-05
8.7000e+03,7.7368e-05
8.7100e+03,7.6377e-05
8.7200e+03,7.5537e-05
8.7300e+03,7.4909e-05
8.7400e+03,7.4517e-05
8.7500e+03,7.4386e-05
8.7600e+03,7.4551e-05
8.7700e+03,7.4997e-05
8.7800e+03,7.5585e-05
8.7900e+03,7.6060e-05
8.8000e+03,7.6135e-05
8.8100e+03,7.5610e-05
8.8200e+03,7.4485e-05
8.8300e+03,7.2975e-05
8.8400e+03,7.1374e-05
8.8500e+03,6.9899e-05
8.8600e+03,6.8635e-05
8.8700e+03,6.7533e-05
8.8800e+03,6.6508e-05
8.8900e+03,6.5553e-05
8.9000e+03,6.4790e-05
8.9100e+03,6.4388e-05
8.9200e+03,6.4335e-05
8.9300e+03,6.4385e-05
8.9400e+03,6.4387e-05
8.9500e+03,6.4454e-05
8.9600e+03,6.4720e-05
8.9700e+03,6.5109e-05
8.9800e+03,6.5358e-05
8.9900e+03,6.5228e-05
9.0000e+03,6.4705e-05
9.0100e+03,6.4015e-05
9.0200e+03,6.3458e-05
9.0300e+03,6.3177e-05
9.0400e+03,6.3092e-05
9.0500e+03,6.3060e-05
9.0600e+03,6.3031e-05
9.0700e+03,6.3058e-05
