# Time , Side-Flux
0.0000e+00,0.0000e+00
1.0000e+01,1.6184e-06
2.0000e+01,3.2007e-06
3.0000e+01,4.7142e-06
4.0000e+01,6.1320e-06
5.0000e+01,7.4345e-06
6.0000e+01,8.6103e-06
7.0000e+01,9.6550e-06
8.0000e+01,1.0570e-05
9.0000e+01,1.1362e-05
1.0000e+02,1.2041e-05
1.1000e+02,1.2616e-05
1.2000e+02,1.3100e-05
1.3000e+02,1.3504e-05
1.4000e+02,1.3839e-05
1.5000e+02,1.4117e-05
1.6000e+02,1.4344e-05
1.7000e+02,1.4531e-05
1.8000e+02,1.4684e-05
1.9000e+02,1.4809e-05
2.0000e+02,1.4911e-05
2.1000e+02,1.4994e-05
2.2000e+02,1.5062e-05
2.3000e+02,1.5117e-05
2.4000e+02,1.5163e-05
2.5000e+02,1.5202e-05
2.6000e+02,1.5234e-05
2.7000e+02,1.5260e-05
2.8000e+02,1.5283e-05
2.9000e+02,1.5303e-05
3.0000e+02,1.5321e-05
3.1000e+02,1.5336e-05
3.2000e+02,1.5349e-05
3.3000e+02,1.5362e-05
3.4000e+02,1.5373e-05
3.5000e+02,1.5383e-05
3.6000e+02,1.5393e-05
3.7000e+02,1.5401e-05
3.8000e+02,1.5409e-05
3.9000e+02,1.5416e-05
4.0000e+02,1.5423e-05
4.1000e+02,1.5429e-05
4.2000e+02,1.5435e-05
4.3000e+02,1.5439e-05
4.4000e+02,1.5443e-05
4.5000e+02,1.5447e-05
4.6000e+02,1.5450e-05
4.7000e+02,1.5453e-05
4.8000e+02,1.5455e-05
4.9000e+02,1.5456e-05
5.0000e+02,1.5457e-05
5.1000e+02,1.5458e-05
5.2000e+02,1.5458e-05
5.3000e+02,1.5458e-05
5.4000e+02,1.5458e-05
5.5000e+02,1.5458e-05
5.6000e+02,1.5458e-05
5.7000e+02,1.5457e-05
5.8000e+02,1.5457e-05
5.9000e+02,1.5456e-05
6.0000e+02,1.5455e-05
6.1000e+02,1.5455e-05
6.2000e+02,1.5454e-05
6.3000e+02,1.5453e-05
6.4000e+02,1.5452e-05
6.5000e+02,1.5451e-05
6.6000e+02,1.5450e-05
6.7000e+02,1.5448e-05
6.8000e+02,1.5445e-05
6.9000e+02,1.5442e-05
7.0000e+02,1.5437e-05
7.1000e+02,1.5431e-05
7.2000e+02,1.5424e-05
7.3000e+02,1.5415e-05
7.4000e+02,1.5405e-05
7.5000e+02,1.5394e-05
7.6000e+02,1.5381e-05
7.7000e+02,1.5366e-05
7.8000e+02,1.5351e-05
7.9000e+02,1.5334e-05
8.0000e+02,1.5317e-05
8.1000e+02,1.5298e-05
8.2000e+02,1.5279e-05
8.3000e+02,1.5258e-05
8.4000e+02,1.5237e-05
8.5000e+02,1.5214e-05
8.6000e+02,1.5190e-05
8.7000e+02,1.5164e-05
8.8000e+02,1.5137e-05
8.9000e+02,1.5107e-05
9.0000e+02,1.5074e-05
9.1000e+02,1.5038e-05
9.2000e+02,1.4998e-05
9.3000e+02,1.4954e-05
9.4000e+02,1.4906e-05
9.5000e+02,1.4854e-05
9.6000e+02,1.4798e-05
9.7000e+02,1.4739e-05
9.8000e+02,1.4676e-05
9.9000e+02,1.4612e-05
1.0000e+03,1.4546e-05
1.0100e+03,1.4480e-05
1.0200e+03,1.4412e-05
1.0300e+03,1.4344e-05
1.0400e+03,1.4275e-05
1.0500e+03,1.4204e-05
1.0600e+03,1.4133e-05
1.0700e+03,1.4060e-05
1.0800e+03,1.3987e-05
1.0900e+03,1.3914e-05
1.1000e+03,1.3842e-05
1.1100e+03,1.3773e-05
1.1200e+03,1.3708e-05
1.1300e+03,1.3649e-05
1.1400e+03,1.3598e-05
1.1500e+03,1.3556e-05
1.1600e+03,1.3524e-05
1.1700e+03,1.3501e-05
1.1800e+03,1.3488e-05
1.1900e+03,1.3484e-05
1.2000e+03,1.3488e-05
1.2100e+03,1.3497e-05
1.2200e+03,1.3511e-05
1.2300e+03,1.3527e-05
1.2400e+03,1.3543e-05
1.2500e+03,1.3558e-05
1.2600e+03,1.3571e-05
1.2700e+03,1.3581e-05
1.2800e+03,1.3588e-05
1.2900e+03,1.3592e-05
1.3000e+03,1.3592e-05
1.3100e+03,1.3590e-05
1.3200e+03,1.3586e-05
1.3300e+03,1.3581e-05
1.3400e+03,1.3576e-05
1.3500e+03,1.3571e-05
1.3600e+03,1.3567e-05
1.3700e+03,1.3565e-05
1.3800e+03,1.3565e-05
1.3900e+03,1.3567e-05
1.4000e+03,1.3572e-05
1.4100e+03,1.3578e-05
1.4200e+03,1.3587e-05
1.4300e+03,1.3597e-05
1.4400e+03,1.3607e-05
1.4500e+03,1.3617e-05
1.4600e+03,1.3626e-05
1.4700e+03,1.3634e-05
1.4800e+03,1.3641e-05
1.4900e+03,1.3646e-05
1.5000e+03,1.3649e-05
1.5100e+03,1.3650e-05
1.5200e+03,1.3651e-05
1.5300e+03,1.3650e-05
1.5400e+03,1.3648e-05
1.5500e+03,1.3646e-05
1.5600e+03,1.3644e-05
1.5700e+03,1.3642e-05
1.5800e+03,1.3640e-05
1.5900e+03,1.3638e-05
1.6000e+03,1.3636e-05
1.6100e+03,1.3634e-05
1.6200e+03,1.3633e-05
1.6300e+03,1.3631e-05
1.6400e+03,1.3629e-05
1.6500e+03,1.3626e-05
1.6600e+03,1.3622e-05
1.6700e+03,1.3618e-05
1.6800e+03,1.3613e-05
1.6900e+03,1.3607e-05
1.7000e+03,1.3599e-05
1.7100e+03,1.3591e-05
1.7200e+03,1.3581e-05
1.7300e+03,1.3571e-05
1.7400e+03,1.3560e-05
1.7500e+03,1.3549e-05
1.7600e+03,1.3538e-05
1.7700e+03,1.3526e-05
1.7800e+03,1.3515e-05
1.7900e+03,1.3503e-05
1.8000e+03,1.3491e-05
1.8100e+03,1.3479e-05
1.8200e+03,1.3467e-05
1.8300e+03,1.3455e-05
1.8400e+03,1.3444e-05
1.8500e+03,1.3433e-05
1.8600e+03,1.3424e-05
1.8700e+03,1.3416e-05
1.8800e+03,1.3410e-05
1.8900e+03,1.3405e-05
1.9000e+03,1.3403e-05
1.9100e+03,1.3402e-05
1.9200e+03,1.3402e-05
1.9300e+03,1.3403e-05
1.9400e+03,1.3404e-05
1.9500e+03,1.3404e-05
1.9600e+03,1.3404e-05
1.9700e+03,1.3403e-05
1.9800e+03,1.3401e-05
1.9900e+03,1.3397e-05
2.0000e+03,1.3392e-05
2.0100e+03,1.3385e-05
2.0200e+03,1.3376e-05
2.0300e+03,1.3366e-05
2.0400e+03,1.3353e-05
2.0500e+03,1.3338e-05
2.0600e+03,1.3320e-05
2.0700e+03,1.3299e-05
2.0800e+03,1.3274e-05
2.0900e+03,1.3244e-05
2.1000e+03,1.3210e-05
2.1100e+03,1.3171e-05
2.1200e+03,1.3126e-05
2.1300e+03,1.3075e-05
2.1400e+03,1.3019e-05
2.1500e+03,1.2958e-05
2.1600e+03,1.2893e-05
2.1700e+03,1.2823e-05
2.1800e+03,1.2752e-05
2.1900e+03,1.2679e-05
2.2000e+03,1.2608e-05
2.2100e+03,1.2540e-05
2.2200e+03,1.2476e-05
2.2300e+03,1.2419e-05
2.2400e+03,1.2369e-05
2.2500e+03,1.2329e-05
2.2600e+03,1.2299e-05
2.2700e+03,1.2279e-05
2.2800e+03,1.2269e-05
2.2900e+03,1.2268e-05
2.3000e+03,1.2275e-05
2.3100e+03,1.2288e-05
2.3200e+03,1.2306e-05
2.3300e+03,1.2327e-05
2.3400e+03,1.2348e-05
2.3500e+03,1.2369e-05
2.3600e+03,1.2389e-05
2.3700e+03,1.2405e-05
2.3800e+03,1.2419e-05
2.3900e+03,1.2430e-05
2.4000e+03,1.2437e-05
2.4100e+03,1.2443e-05
2.4200e+03,1.2446e-05
2.4300e+03,1.2447e-05
2.4400e+03,1.2446e-05
2.4500e+03,1.2445e-05
2.4600e+03,1.2443e-05
2.4700e+03,1.2439e-05
2.4800e+03,1.2435e-05
2.4900e+03,1.2430e-05
2.5000e+03,1.2425e-05
2.5100e+03,1.2419e-05
2.5200e+03,1.2413e-05
2.5300e+03,1.2407e-05
2.5400e+03,1.2402e-05
2.5500e+03,1.2397e-05
2.5600e+03,1.2392e-05
2.5700e+03,1.2389e-05
2.5800e+03,1.2387e-05
2.5900e+03,1.2385e-05
2.6000e+03,1.2385e-05
2.6100e+03,1.2385e-05
2.6200e+03,1.2386e-05
2.6300e+03,1.2387e-05
2.6400e+03,1.2389e-05
2.6500e+03,1.2390e-05
2.6600e+03,1.2392e-05
2.6700e+03,1.2392e-05
2.6800e+03,1.2393e-05
2.6900e+03,1.2393e-05
2.7000e+03,1.2392e-05
2.7100e+03,1.2390e-05
2.7200e+03,1.2388e-05
2.7300e+03,1.2386e-05
2.7400e+03,1.2383e-05
2.7500e+03,1.2381e-05
2.7600e+03,1.2379e-05
2.7700e+03,1.2377e-05
2.7800e+03,1.2376e-05
2.7900e+03,1.2377e-05
2.8000e+03,1.2378e-05
2.8100e+03,1.2379e-05
2.8200e+03,1.2381e-05
2.8300e+03,1.2382e-05
2.8400e+03,1.2383e-05
2.8500e+03,1.2382e-05
2.8600e+03,1.2379e-05
2.8700e+03,1.2372e-05
2.8800e+03,1.2362e-05
2.8900e+03,1.2347e-05
2.9000e+03,1.2328e-05
2.9100e+03,1.2303e-05
2.9200e+03,1.2273e-05
2.9300e+03,1.2238e-05
2.9400e+03,1.2197e-05
2.9500e+03,1.2152e-05
2.9600e+03,1.2103e-05
2.9700e+03,1.2051e-05
2.9800e+03,1.1996e-05
2.9900e+03,1.1938e-05
3.0000e+03,1.1880e-05
3.0100e+03,1.1822e-05
3.0200e+03,1.1764e-05
3.0300e+03,1.1709e-05
3.0400e+03,1.1656e-05
3.0500e+03,1.1607e-05
3.0600e+03,1.1563e-05
3.0700e+03,1.1523e-05
3.0800e+03,1.1489e-05
3.0900e+03,1.1460e-05
3.1000e+03,1.1435e-05
3.1100e+03,1.1416e-05
3.1200e+03,1.1403e-05
3.1300e+03,1.1394e-05
3.1400e+03,1.1391e-05
3.1500e+03,1.1392e-05
3.1600e+03,1.1396e-05
3.1700e+03,1.1404e-05
3.1800e+03,1.1413e-05
3.1900e+03,1.1422e-05
3.2000e+03,1.1431e-05
3.2100e+03,1.1440e-05
3.2200e+03,1.1446e-05
3.2300e+03,1.1451e-05
3.2400e+03,1.1454e-05
3.2500e+03,1.1456e-05
3.2600e+03,1.1457e-05
3.2700e+03,1.1456e-05
3.2800e+03,1.1454e-05
3.2900e+03,1.1451e-05
3.3000e+03,1.1448e-05
3.3100e+03,1.1445e-05
3.3200e+03,1.1441e-05
3.3300e+03,1.1437e-05
3.3400e+03,1.1433e-05
3.3500e+03,1.1430e-05
3.3600e+03,1.1427e-05
3.3700e+03,1.1425e-05
3.3800e+03,1.1423e-05
3.3900e+03,1.1423e-05
3.4000e+03,1.1422e-05
3.4100e+03,1.1422e-05
3.4200e+03,1.1421e-05
3.4300e+03,1.1419e-05
3.4400e+03,1.1417e-05
3.4500e+03,1.1413e-05
3.4600e+03,1.1408e-05
3.4700e+03,1.1402e-05
3.4800e+03,1.1395e-05
3.4900e+03,1.1386e-05
3.5000e+03,1.1377e-05
3.5100e+03,1.1366e-05
3.5200e+03,1.1355e-05
3.5300e+03,1.1344e-05
3.5400e+03,1.1332e-05
3.5500e+03,1.1321e-05
3.5600e+03,1.1311e-05
3.5700e+03,1.1302e-05
3.5800e+03,1.1294e-05
3.5900e+03,1.1288e-05
3.6000e+03,1.1284e-05
3.6100e+03,1.1281e-05
3.6200e+03,1.1281e-05
3.6300e+03,1.1282e-05
3.6400e+03,1.1285e-05
3.6500e+03,1.1289e-05
3.6600e+03,1.1295e-05
3.6700e+03,1.1301e-05
3.6800e+03,1.1307e-05
3.6900e+03,1.1312e-05
3.7000e+03,1.1317e-05
3.7100e+03,1.1319e-05
3.7200e+03,1.1320e-05
3.7300e+03,1.1318e-05
3.7400e+03,1.1315e-05
3.7500e+03,1.1311e-05
3.7600e+03,1.1306e-05
3.7700e+03,1.1302e-05
3.7800e+03,1.1299e-05
3.7900e+03,1.1297e-05
3.8000e+03,1.1297e-05
3.8100e+03,1.1299e-05
3.8200e+03,1.1302e-05
3.8300e+03,1.1306e-05
3.8400e+03,1.1310e-05
3.8500e+03,1.1314e-05
3.8600e+03,1.1316e-05
3.8700e+03,1.1317e-05
3.8800e+03,1.1315e-05
3.8900e+03,1.1311e-05
3.9000e+03,1.1304e-05
3.9100e+03,1.1294e-05
3.9200e+03,1.1282e-05
3.9300e+03,1.1267e-05
3.9400e+03,1.1249e-05
3.9500e+03,1.1230e-05
3.9600e+03,1.1211e-05
3.9700e+03,1.1190e-05
3.9800e+03,1.1170e-05
3.9900e+03,1.1150e-05
4.0000e+03,1.1130e-05
4.0100e+03,1.1110e-05
4.0200e+03,1.1089e-05
4.0300e+03,1.1067e-05
4.0400e+03,1.1044e-05
4.0500e+03,1.1021e-05
4.0600e+03,1.0996e-05
4.0700e+03,1.0972e-05
4.0800e+03,1.0947e-05
4.0900e+03,1.0924e-05
4.1000e+03,1.0901e-05
4.1100e+03,1.0880e-05
4.1200e+03,1.0860e-05
4.1300e+03,1.0843e-05
4.1400e+03,1.0828e-05
4.1500e+03,1.0816e-05
4.1600e+03,1.0806e-05
4.1700e+03,1.0800e-05
4.1800e+03,1.0798e-05
4.1900e+03,1.0798e-05
4.2000e+03,1.0801e-05
4.2100e+03,1.0806e-05
4.2200e+03,1.0812e-05
4.2300e+03,1.0818e-05
4.2400e+03,1.0825e-05
4.2500e+03,1.0831e-05
4.2600e+03,1.0835e-05
4.2700e+03,1.0838e-05
4.2800e+03,1.0839e-05
4.2900e+03,1.0838e-05
4.3000e+03,1.0835e-05
4.3100e+03,1.0830e-05
4.3200e+03,1.0823e-05
4.3300e+03,1.0815e-05
4.3400e+03,1.0806e-05
4.3500e+03,1.0795e-05
4.3600e+03,1.0783e-05
4.3700e+03,1.0770e-05
4.3800e+03,1.0756e-05
4.3900e+03,1.0740e-05
4.4000e+03,1.0724e-05
4.4100e+03,1.0708e-05
4.4200e+03,1.0690e-05
4.4300e+03,1.0672e-05
4.4400e+03,1.0653e-05
4.4500e+03,1.0635e-05
4.4600e+03,1.0618e-05
4.4700e+03,1.0602e-05
4.4800e+03,1.0587e-05
4.4900e+03,1.0574e-05
4.5000e+03,1.0563e-05
4.5100e+03,1.0554e-05
4.5200e+03,1.0547e-05
4.5300e+03,1.0541e-05
4.5400e+03,1.0538e-05
4.5500e+03,1.0536e-05
4.5600e+03,1.0536e-05
4.5700e+03,1.0536e-05
4.5800e+03,1.0537e-05
4.5900e+03,1.0539e-05
4.6000e+03,1.0541e-05
4.6100e+03,1.0543e-05
4.6200e+03,1.0544e-05
4.6300e+03,1.0546e-05
4.6400e+03,1.0548e-05
4.6500e+03,1.0549e-05
4.6600e+03,1.0549e-05
4.6700e+03,1.0549e-05
4.6800e+03,1.0548e-05
4.6900e+03,1.0547e-05
4.7000e+03,1.0546e-05
4.7100e+03,1.0544e-05
4.7200e+03,1.0542e-05
4.7300e+03,1.0540e-05
4.7400e+03,1.0537e-05
4.7500e+03,1.0534e-05
4.7600e+03,1.0531e-05
4.7700e+03,1.0526e-05
4.7800e+03,1.0521e-05
4.7900e+03,1.0514e-05
4.8000e+03,1.0505e-05
4.8100e+03,1.0495e-05
4.8200e+03,1.0484e-05
4.8300e+03,1.0471e-05
4.8400e+03,1.0457e-05
4.8500e+03,1.0442e-05
4.8600e+03,1.0426e-05
4.8700e+03,1.0410e-05
4.8800e+03,1.0394e-05
4.8900e+03,1.0378e-05
4.9000e+03,1.0363e-05
4.9100e+03,1.0349e-05
4.9200e+03,1.0337e-05
4.9300e+03,1.0326e-05
4.9400e+03,1.0317e-05
4.9500e+03,1.0310e-05
4.9600e+03,1.0307e-05
4.9700e+03,1.0307e-05
4.9800e+03,1.0310e-05
4.9900e+03,1.0318e-05
5.0000e+03,1.0330e-05
5.0100e+03,1.0347e-05
5.0200e+03,1.0368e-05
5.0300e+03,1.0393e-05
5.0400e+03,1.0420e-05
5.0500e+03,1.0449e-05
5.0600e+03,1.0477e-05
5.0700e+03,1.0501e-05
5.0800e+03,1.0520e-05
5.0900e+03,1.0531e-05
5.1000e+03,1.0531e-05
5.1100e+03,1.0518e-05
5.1200e+03,1.0492e-05
5.1300e+03,1.0450e-05
5.1400e+03,1.0393e-05
5.1500e+03,1.0322e-05
5.1600e+03,1.0238e-05
5.1700e+03,1.0143e-05
5.1800e+03,1.0041e-05
5.1900e+03,9.9342e-06
5.2000e+03,9.8276e-06
5.2100e+03,9.7243e-06
5.2200e+03,9.6277e-06
5.2300e+03,9.5408e-06
5.2400e+03,9.4657e-06
5.2500e+03,9.4038e-06
5.2600e+03,9.3558e-06
5.2700e+03,9.3215e-06
5.2800e+03,9.3000e-06
5.2900e+03,9.2900e-06
5.3000e+03,9.2899e-06
5.3100e+03,9.2980e-06
5.3200e+03,9.3129e-06
5.3300e+03,9.3336e-06
5.3400e+03,9.3595e-06
5.3500e+03,9.3904e-06
5.3600e+03,9.4264e-06
5.3700e+03,9.4678e-06
5.3800e+03,9.5147e-06
5.3900e+03,9.5670e-06
5.4000e+03,9.6240e-06
5.4100e+03,9.6844e-06
5.4200e+03,9.7465e-06
5.4300e+03,9.8081e-06
5.4400e+03,9.8670e-06
5.4500e+03,9.9206e-06
5.4600e+03,9.9669e-06
5.4700e+03,1.0004e-05
5.4800e+03,1.0031e-05
5.4900e+03,1.0048e-05
5.5000e+03,1.0053e-05
5.5100e+03,1.0049e-05
5.5200e+03,1.0035e-05
5.5300e+03,1.0013e-05
5.5400e+03,9.9854e-06
5.5500e+03,9.9531e-06
5.5600e+03,9.9181e-06
5.5700e+03,9.8821e-06
5.5800e+03,9.8467e-06
5.5900e+03,9.8131e-06
5.6000e+03,9.7821e-06
5.6100e+03,9.7541e-06
5.6200e+03,9.7294e-06
5.6300e+03,9.7075e-06
5.6400e+03,9.6882e-06
5.6500e+03,9.6708e-06
5.6600e+03,9.6547e-06
5.6700e+03,9.6395e-06
5.6800e+03,9.6249e-06
5.6900e+03,9.6109e-06
5.7000e+03,9.5977e-06
5.7100e+03,9.5857e-06
5.7200e+03,9.5755e-06
5.7300e+03,9.5679e-06
5.7400e+03,9.5634e-06
5.7500e+03,9.5628e-06
5.7600e+03,9.5664e-06
5.7700e+03,9.5745e-06
5.7800e+03,9.5869e-06
5.7900e+03,9.6033e-06
5.8000e+03,9.6230e-06
5.8100e+03,9.6450e-06
5.8200e+03,9.6681e-06
5.8300e+03,9.6912e-06
5.8400e+03,9.7130e-06
5.8500e+03,9.7323e-06
5.8600e+03,9.7483e-06
5.8700e+03,9.7602e-06
5.8800e+03,9.7674e-06
5.8900e+03,9.7698e-06
5.9000e+03,9.7673e-06
5.9100e+03,9.7598e-06
5.9200e+03,9.7477e-06
5.9300e+03,9.7311e-06
5.9400e+03,9.7102e-06
5.9500e+03,9.6855e-06
5.9600e+03,9.6573e-06
5.9700e+03,9.6262e-06
5.9800e+03,9.5927e-06
5.9900e+03,9.5578e-06
6.0000e+03,9.5223e-06
6.0100e+03,9.4875e-06
6.0200e+03,9.4546e-06
6.0300e+03,9.4247e-06
6.0400e+03,9.3990e-06
6.0500e+03,9.3786e-06
6.0600e+03,9.3643e-06
6.0700e+03,9.3568e-06
6.0800e+03,9.3566e-06
6.0900e+03,9.3638e-06
6.1000e+03,9.3782e-06
6.1100e+03,9.3996e-06
6.1200e+03,9.4274e-06
6.1300e+03,9.4608e-06
6.1400e+03,9.4989e-06
6.1500e+03,9.5407e-06
6.1600e+03,9.5851e-06
6.1700e+03,9.6312e-06
6.1800e+03,9.6781e-06
6.1900e+03,9.7249e-06
6.2000e+03,9.7710e-06
6.2100e+03,9.8160e-06
6.2200e+03,9.8594e-06
6.2300e+03,9.9011e-06
6.2400e+03,9.9408e-06
6.2500e+03,9.9785e-06
6.2600e+03,1.0014e-05
6.2700e+03,1.0047e-05
6.2800e+03,1.0079e-05
6.2900e+03,1.0108e-05
6.3000e+03,1.0135e-05
6.3100e+03,1.0161e-05
6.3200e+03,1.0184e-05
6.3300e+03,1.0206e-05
6.3400e+03,1.0226e-05
6.3500e+03,1.0245e-05
6.3600e+03,1.0262e-05
6.3700e+03,1.0277e-05
6.3800e+03,1.0290e-05
6.3900e+03,1.0301e-05
6.4000e+03,1.0310e-05
6.4100e+03,1.0317e-05
6.4200e+03,1.0322e-05
6.4300e+03,1.0326e-05
6.4400e+03,1.0328e-05
6.4500e+03,1.0329e-05
6.4600e+03,1.0329e-05
6.4700e+03,1.0329e-05
6.4800e+03,1.0328e-05
6.4900e+03,1.0326e-05
6.5000e+03,1.0324e-05
6.5100e+03,1.0321e-05
6.5200e+03,1.0318e-05
6.5300e+03,1.0313e-05
6.5400e+03,1.0306e-05
6.5500e+03,1.0297e-05
6.5600e+03,1.0285e-05
6.5700e+03,1.0271e-05
6.5800e+03,1.0254e-05
6.5900e+03,1.0234e-05
6.6000e+03,1.0212e-05
6.6100e+03,1.0189e-05
6.6200e+03,1.0165e-05
6.6300e+03,1.0140e-05
6.6400e+03,1.0116e-05
6.6500e+03,1.0093e-05
6.6600e+03,1.0072e-05
6.6700e+03,1.0052e-05
6.6800e+03,1.0034e-05
6.6900e+03,1.0018e-05
6.7000e+03,1.0003e-05
6.7100e+03,9.9896e-06
6.7200e+03,9.9777e-06
6.7300e+03,9.9669e-06
6.7400e+03,9.9573e-06
6.7500e+03,9.9487e-06
6.7600e+03,9.9413e-06
6.7700e+03,9.9349e-06
6.7800e+03,9.9294e-06
6.7900e+03,9.9246e-06
6.8000e+03,9.9198e-06
6.8100e+03,9.9144e-06
6.8200e+03,9.9076e-06
6.8300e+03,9.8986e-06
6.8400e+03,9.8866e-06
6.8500e+03,9.8707e-06
6.8600e+03,9.8506e-06
6.8700e+03,9.8255e-06
6.8800e+03,9.7954e-06
6.8900e+03,9.7600e-06
6.9000e+03,9.7194e-06
6.9100e+03,9.6738e-06
6.9200e+03,9.6237e-06
6.9300e+03,9.5700e-06
6.9400e+03,9.5136e-06
6.9500e+03,9.4560e-06
6.9600e+03,9.3985e-06
6.9700e+03,9.3429e-06
6.9800e+03,9.2906e-06
6.9900e+03,9.2431e-06
7.0000e+03,9.2016e-06
7.0100e+03,9.1670e-06
7.0200e+03,9.1399e-06
7.0300e+03,9.1206e-06
7.0400e+03,9.1091e-06
7.0500e+03,9.1052e-06
7.0600e+03,9.1085e-06
7.0700e+03,9.1187e-06
7.0800e+03,9.1353e-06
7.0900e+03,9.1582e-06
7.1000e+03,9.1872e-06
7.1100e+03,9.2222e-06
7.1200e+03,9.2631e-06
7.1300e+03,9.3095e-06
7.1400e+03,9.3612e-06
7.1500e+03,9.4174e-06
7.1600e+03,9.4775e-06
7.1700e+03,9.5406e-06
7.1800e+03,9.6060e-06
7.1900e+03,9.6730e-06
7.2000e+03,9.7411e-06
7.2100e+03,9.8097e-06
7.2200e+03,9.8784e-06
7.2300e+03,9.9467e-06
7.2400e+03,1.0014e-05
7.2500e+03,1.0080e-05
7.2600e+03,1.0144e-05
7.2700e+03,1.0205e-05
7.2800e+03,1.0263e-05
7.2900e+03,1.0316e-05
7.3000e+03,1.0366e-05
7.3100e+03,1.0409e-05
7.3200e+03,1.0447e-05
7.3300e+03,1.0478e-05
7.3400e+03,1.0502e-05
7.3500e+03,1.0519e-05
7.3600e+03,1.0528e-05
7.3700e+03,1.0529e-05
7.3800e+03,1.0523e-05
7.3900e+03,1.0509e-05
7.4000e+03,1.0488e-05
7.4100e+03,1.0459e-05
7.4200e+03,1.0422e-05
7.4300e+03,1.0377e-05
7.4400e+03,1.0325e-05
7.4500e+03,1.0265e-05
7.4600e+03,1.0196e-05
7.4700e+03,1.0121e-05
7.4800e+03,1.0038e-05
7.4900e+03,9.9490e-06
7.5000e+03,9.8549e-06
7.5100e+03,9.7568e-06
7.5200e+03,9.6562e-06
7.5300e+03,9.5544e-06
7.5400e+03,9.4529e-06
7.5500e+03,9.3531e-06
7.5600e+03,9.2562e-06
7.5700e+03,9.1631e-06
7.5800e+03,9.0744e-06
7.5900e+03,8.9903e-06
7.6000e+03,8.9108e-06
7.6100e+03,8.8357e-06
7.6200e+03,8.7646e-06
7.6300e+03,8.6976e-06
7.6400e+03,8.6346e-06
7.6500e+03,8.5759e-06
7.6600e+03,8.5218e-06
7.6700e+03,8.4729e-06
7.6800e+03,8.4297e-06
7.6900e+03,8.3923e-06
7.7000e+03,8.3609e-06
7.7100e+03,8.3350e-06
7.7200e+03,8.3140e-06
7.7300e+03,8.2970e-06
7.7400e+03,8.2829e-06
7.7500e+03,8.2705e-06
7.7600e+03,8.2590e-06
7.7700e+03,8.2477e-06
7.7800e+03,8.2363e-06
7.7900e+03,8.2247e-06
7.8000e+03,8.2129e-06
7.8100e+03,8.2012e-06
7.8200e+03,8.1894e-06
7.8300e+03,8.1775e-06
7.8400e+03,8.1652e-06
7.8500e+03,8.1524e-06
7.8600e+03,8.1388e-06
7.8700e+03,8.1241e-06
7.8800e+03,8.1083e-06
7.8900e+03,8.0913e-06
7.9000e+03,8.0735e-06
7.9100e+03,8.0549e-06
7.9200e+03,8.0359e-06
7.9300e+03,8.0166e-06
7.9400e+03,7.9973e-06
7.9500e+03,7.9781e-06
7.9600e+03,7.9592e-06
7.9700e+03,7.9405e-06
7.9800e+03,7.9223e-06
7.9900e+03,7.9044e-06
8.0000e+03,7.8870e-06
8.0100e+03,7.8701e-06
8.0200e+03,7.8536e-06
8.0300e+03,7.8377e-06
8.0400e+03,7.8223e-06
8.0500e+03,7.8073e-06
8.0600e+03,7.7924e-06
8.0700e+03,7.7776e-06
8.0800e+03,7.7626e-06
8.0900e+03,7.7469e-06
8.1000e+03,7.7304e-06
8.1100e+03,7.7127e-06
8.1200e+03,7.6936e-06
8.1300e+03,7.6727e-06
8.1400e+03,7.6500e-06
8.1500e+03,7.6254e-06
8.1600e+03,7.5989e-06
8.1700e+03,7.5707e-06
8.1800e+03,7.5410e-06
8.1900e+03,7.5101e-06
8.2000e+03,7.4784e-06
8.2100e+03,7.4460e-06
8.2200e+03,7.4133e-06
8.2300e+03,7.3805e-06
8.2400e+03,7.3476e-06
8.2500e+03,7.3147e-06
8.2600e+03,7.2817e-06
8.2700e+03,7.2486e-06
8.2800e+03,7.2151e-06
8.2900e+03,7.1810e-06
8.3000e+03,7.1459e-06
8.3100e+03,7.1096e-06
8.3200e+03,7.0717e-06
8.3300e+03,7.0320e-06
8.3400e+03,6.9907e-06
8.3500e+03,6.9478e-06
8.3600e+03,6.9037e-06
8.3700e+03,6.8587e-06
8.3800e+03,6.8133e-06
8.3900e+03,6.7679e-06
8.4000e+03,6.7231e-06
8.4100e+03,6.6793e-06
8.4200e+03,6.6370e-06
8.4300e+03,6.5967e-06
8.4400e+03,6.5589e-06
8.4500e+03,6.5241e-06
8.4600e+03,6.4926e-06
8.4700e+03,6.4646e-06
8.4800e+03,6.4404e-06
8.4900e+03,6.4197e-06
8.5000e+03,6.4024e-06
8.5100e+03,6.3879e-06
8.5200e+03,6.3758e-06
8.5300e+03,6.3654e-06
8.5400e+03,6.3561e-06
8.5500e+03,6.3473e-06
8.5600e+03,6.3385e-06
8.5700e+03,6.3294e-06
8.5800e+03,6.3199e-06
8.5900e+03,6.3101e-06
8.6000e+03,6.3003e-06
8.6100e+03,6.2908e-06
8.6200e+03,6.2822e-06
8.6300e+03,6.2748e-06
8.6400e+03,6.2690e-06
8.6500e+03,6.2650e-06
8.6600e+03,6.2627e-06
8.6700e+03,6.2617e-06
8.6800e+03,6.2615e-06
8.6900e+03,6.2612e-06
8.7000e+03,6.2601e-06
8.7100e+03,6.2574e-06
8.7200e+03,6.2527e-06
8.7300e+03,6.2458e-06
8.7400e+03,6.2367e-06
8.7500e+03,6.2257e-06
8.7600e+03,6.2133e-06
8.7700e+03,6.2000e-06
8.7800e+03,6.1861e-06
8.7900e+03,6.1721e-06
8.8000e+03,6.1581e-06
8.8100e+03,6.1442e-06
8.8200e+03,6.1308e-06
8.8300e+03,6.1180e-06
8.8400e+03,6.1065e-06
8.8500e+03,6.0968e-06
8.8600e+03,6.0898e-06
8.8700e+03,6.0865e-06
8.8800e+03,6.0876e-06
8.8900e+03,6.0940e-06
8.9000e+03,6.1061e-06
8.9100e+03,6.1242e-06
8.9200e+03,6.1482e-06
8.9300e+03,6.1778e-06
8.9400e+03,6.2125e-06
8.9500e+03,6.2515e-06
8.9600e+03,6.2943e-06
8.9700e+03,6.3401e-06
8.9800e+03,6.3886e-06
8.9900e+03,6.4398e-06
9.0000e+03,6.4937e-06
9.0100e+03,6.5510e-06
9.0200e+03,6.6120e-06
9.0300e+03,6.6777e-06
9.0400e+03,6.7487e-06
9.0500e+03,6.8256e-06
9.0600e+03,6.9090e-06
9.0700e+03,6.9993e-06
