# Time , Side-Flux
0.0000e+00,0.0000e+00
1.0000e+01,2.3581e-05
2.0000e+01,4.5475e-05
3.0000e+01,6.4517e-05
4.0000e+01,8.0258e-05
5.0000e+01,9.2816e-05
6.0000e+01,1.0261e-04
7.0000e+01,1.1013e-04
8.0000e+01,1.1587e-04
9.0000e+01,1.2022e-04
1.0000e+02,1.2351e-04
1.1000e+02,1.2598e-04
1.2000e+02,1.2783e-04
1.3000e+02,1.2920e-04
1.4000e+02,1.3022e-04
1.5000e+02,1.3098e-04
1.6000e+02,1.3153e-04
1.7000e+02,1.3193e-04
1.8000e+02,1.3222e-04
1.9000e+02,1.3242e-04
2.0000e+02,1.3257e-04
2.1000e+02,1.3267e-04
2.2000e+02,1.3275e-04
2.3000e+02,1.3280e-04
2.4000e+02,1.3284e-04
2.5000e+02,1.3286e-04
2.6000e+02,1.3288e-04
2.7000e+02,1.3289e-04
2.8000e+02,1.3290e-04
2.9000e+02,1.3291e-04
3.0000e+02,1.3291e-04
3.1000e+02,1.3292e-04
3.2000e+02,1.3293e-04
3.3000e+02,1.3293e-04
3.4000e+02,1.3294e-04
3.5000e+02,1.3295e-04
3.6000e+02,1.3296e-04
3.7000e+02,1.3297e-04
3.8000e+02,1.3298e-04
3.9000e+02,1.3299e-04
4.0000e+02,1.3300e-04
4.1000e+02,1.3300e-04
4.2000e+02,1.3301e-04
4.3000e+02,1.3302e-04
4.4000e+02,1.3303e-04
4.5000e+02,1.3304e-04
4.6000e+02,1.3304e-04
4.7000e+02,1.3305e-04
4.8000e+02,1.3305e-04
4.9000e+02,1.3305e-04
5.0000e+02,1.3305e-04
5.1000e+02,1.3305e-04
5.2000e+02,1.3304e-04
5.3000e+02,1.3303e-04
5.4000e+02,1.3302e-04
5.5000e+02,1.3301e-04
5.6000e+02,1.3300e-04
5.7000e+02,1.3298e-04
5.8000e+02,1.3295e-04
5.9000e+02,1.3291e-04
6.0000e+02,1.3285e-04
6.1000e+02,1.3277e-04
6.2000e+02,1.3268e-04
6.3000e+02,1.3255e-04
6.4000e+02,1.3240e-04
6.5000e+02,1.3222e-04
6.6000e+02,1.3201e-04
6.7000e+02,1.3176e-04
6.8000e+02,1.3148e-04
6.9000e+02,1.3118e-04
7.0000e+02,1.3085e-04
7.1000e+02,1.3050e-04
7.2000e+02,1.3011e-04
7.3000e+02,1.2970e-04
7.4000e+02,1.2927e-04
7.5000e+02,1.2883e-04
7.6000e+02,1.2840e-04
7.7000e+02,1.2801e-04
7.8000e+02,1.2764e-04
7.9000e+02,1.2729e-04
8.0000e+02,1.2694e-04
8.1000e+02,1.2656e-04
8.2000e+02,1.2613e-04
8.3000e+02,1.2565e-04
8.4000e+02,1.2515e-04
8.5000e+02,1.2466e-04
8.6000e+02,1.2421e-04
8.7000e+02,1.2383e-04
8.8000e+02,1.2352e-04
8.9000e+02,1.2325e-04
9.0000e+02,1.2299e-04
9.1000e+02,1.2268e-04
9.2000e+02,1.2227e-04
9.3000e+02,1.2171e-04
9.4000e+02,1.2098e-04
9.5000e+02,1.2011e-04
9.6000e+02,1.1912e-04
9.7000e+02,1.1810e-04
9.8000e+02,1.1711e-04
9.9000e+02,1.1626e-04
1.0000e+03,1.1561e-04
1.0100e+03,1.1518e-04
1.0200e+03,1.1493e-04
1.0300e+03,1.1480e-04
1.0400e+03,1.1469e-04
1.0500e+03,1.1450e-04
1.0600e+03,1.1415e-04
1.0700e+03,1.1357e-04
1.0800e+03,1.1275e-04
1.0900e+03,1.1169e-04
1.1000e+03,1.1045e-04
1.1100e+03,1.0911e-04
1.1200e+03,1.0778e-04
1.1300e+03,1.0655e-04
1.1400e+03,1.0549e-04
1.1500e+03,1.0464e-04
1.1600e+03,1.0403e-04
1.1700e+03,1.0363e-04
1.1800e+03,1.0344e-04
1.1900e+03,1.0344e-04
1.2000e+03,1.0358e-04
1.2100e+03,1.0384e-04
1.2200e+03,1.0417e-04
1.2300e+03,1.0452e-04
1.2400e+03,1.0484e-04
1.2500e+03,1.0509e-04
1.2600e+03,1.0523e-04
1.2700e+03,1.0525e-04
1.2800e+03,1.0518e-04
1.2900e+03,1.0504e-04
1.3000e+03,1.0485e-04
1.3100e+03,1.0464e-04
1.3200e+03,1.0441e-04
1.3300e+03,1.0417e-04
1.3400e+03,1.0392e-04
1.3500e+03,1.0363e-04
1.3600e+03,1.0333e-04
1.3700e+03,1.0301e-04
1.3800e+03,1.0271e-04
1.3900e+03,1.0244e-04
1.4000e+03,1.0223e-04
1.4100e+03,1.0208e-04
1.4200e+03,1.0200e-04
1.4300e+03,1.0196e-04
1.4400e+03,1.0196e-04
1.4500e+03,1.0198e-04
1.4600e+03,1.0202e-04
1.4700e+03,1.0204e-04
1.4800e+03,1.0206e-04
1.4900e+03,1.0207e-04
1.5000e+03,1.0207e-04
1.5100e+03,1.0205e-04
1.5200e+03,1.0203e-04
1.5300e+03,1.0200e-04
1.5400e+03,1.0198e-04
1.5500e+03,1.0196e-04
1.5600e+03,1.0195e-04
1.5700e+03,1.0194e-04
1.5800e+03,1.0193e-04
1.5900e+03,1.0193e-04
1.6000e+03,1.0192e-04
1.6100e+03,1.0192e-04
1.6200e+03,1.0193e-04
1.6300e+03,1.0193e-04
1.6400e+03,1.0193e-04
1.6500e+03,1.0193e-04
1.6600e+03,1.0191e-04
1.6700e+03,1.0188e-04
1.6800e+03,1.0184e-04
1.6900e+03,1.0179e-04
1.7000e+03,1.0174e-04
1.7100e+03,1.0167e-04
1.7200e+03,1.0159e-04
1.7300e+03,1.0149e-04
1.7400e+03,1.0139e-04
1.7500e+03,1.0130e-04
1.7600e+03,1.0122e-04
1.7700e+03,1.0118e-04
1.7800e+03,1.0116e-04
1.7900e+03,1.0116e-04
1.8000e+03,1.0115e-04
1.8100e+03,1.0109e-04
1.8200e+03,1.0098e-04
1.8300e+03,1.0079e-04
1.8400e+03,1.0053e-04
1.8500e+03,1.0023e-04
1.8600e+03,9.9912e-05
1.8700e+03,9.9611e-05
1.8800e+03,9.9342e-05
1.8900e+03,9.9113e-05
1.9000e+03,9.8921e-05
1.9100e+03,9.8763e-05
1.9200e+03,9.8634e-05
1.9300e+03,9.8534e-05
1.9400e+03,9.8463e-05
1.9500e+03,9.8418e-05
1.9600e+03,9.8397e-05
1.9700e+03,9.8394e-05
1.9800e+03,9.8403e-05
1.9900e+03,9.8416e-05
2.0000e+03,9.8425e-05
2.0100e+03,9.8424e-05
2.0200e+03,9.8409e-05
2.0300e+03,9.8377e-05
2.0400e+03,9.8323e-05
2.0500e+03,9.8244e-05
2.0600e+03,9.8133e-05
2.0700e+03,9.7985e-05
2.0800e+03,9.7793e-05
2.0900e+03,9.7554e-05
2.1000e+03,9.7263e-05
2.1100e+03,9.6914e-05
2.1200e+03,9.6499e-05
2.1300e+03,9.6000e-05
2.1400e+03,9.5404e-05
2.1500e+03,9.4698e-05
2.1600e+03,9.3882e-05
2.1700e+03,9.2960e-05
2.1800e+03,9.1948e-05
2.1900e+03,9.0873e-05
2.2000e+03,8.9777e-05
2.2100e+03,8.8702e-05
2.2200e+03,8.7681e-05
2.2300e+03,8.6734e-05
2.2400e+03,8.5870e-05
2.2500e+03,8.5100e-05
2.2600e+03,8.4443e-05
2.2700e+03,8.3927e-05
2.2800e+03,8.3578e-05
2.2900e+03,8.3400e-05
2.3000e+03,8.3382e-05
2.3100e+03,8.3494e-05
2.3200e+03,8.3699e-05
2.3300e+03,8.3954e-05
2.3400e+03,8.4213e-05
2.3500e+03,8.4441e-05
2.3600e+03,8.4616e-05
2.3700e+03,8.4734e-05
2.3800e+03,8.4797e-05
2.3900e+03,8.4815e-05
2.4000e+03,8.4798e-05
2.4100e+03,8.4756e-05
2.4200e+03,8.4699e-05
2.4300e+03,8.4641e-05
2.4400e+03,8.4596e-05
2.4500e+03,8.4573e-05
2.4600e+03,8.4564e-05
2.4700e+03,8.4552e-05
2.4800e+03,8.4514e-05
2.4900e+03,8.4443e-05
2.5000e+03,8.4341e-05
2.5100e+03,8.4219e-05
2.5200e+03,8.4086e-05
2.5300e+03,8.3947e-05
2.5400e+03,8.3804e-05
2.5500e+03,8.3655e-05
2.5600e+03,8.3505e-05
2.5700e+03,8.3358e-05
2.5800e+03,8.3227e-05
2.5900e+03,8.3123e-05
2.6000e+03,8.3056e-05
2.6100e+03,8.3028e-05
2.6200e+03,8.3030e-05
2.6300e+03,8.3052e-05
2.6400e+03,8.3079e-05
2.6500e+03,8.3103e-05
2.6600e+03,8.3119e-05
2.6700e+03,8.3128e-05
2.6800e+03,8.3129e-05
2.6900e+03,8.3119e-05
2.7000e+03,8.3096e-05
2.7100e+03,8.3057e-05
2.7200e+03,8.2997e-05
2.7300e+03,8.2916e-05
2.7400e+03,8.2815e-05
2.7500e+03,8.2706e-05
2.7600e+03,8.2600e-05
2.7700e+03,8.2511e-05
2.7800e+03,8.2444e-05
2.7900e+03,8.2398e-05
2.8000e+03,8.2365e-05
2.8100e+03,8.2334e-05
2.8200e+03,8.2296e-05
2.8300e+03,8.2244e-05
2.8400e+03,8.2174e-05
2.8500e+03,8.2079e-05
2.8600e+03,8.1953e-05
2.8700e+03,8.1786e-05
2.8800e+03,8.1572e-05
2.8900e+03,8.1301e-05
2.9000e+03,8.0966e-05
2.9100e+03,8.0567e-05
2.9200e+03,8.0111e-05
2.9300e+03,7.9615e-05
2.9400e+03,7.9097e-05
2.9500e+03,7.8571e-05
2.9600e+03,7.8037e-05
2.9700e+03,7.7484e-05
2.9800e+03,7.6892e-05
2.9900e+03,7.6248e-05
3.0000e+03,7.5548e-05
3.0100e+03,7.4810e-05
3.0200e+03,7.4069e-05
3.0300e+03,7.3364e-05
3.0400e+03,7.2725e-05
3.0500e+03,7.2166e-05
3.0600e+03,7.1688e-05
3.0700e+03,7.1269e-05
3.0800e+03,7.0870e-05
3.0900e+03,7.0440e-05
3.1000e+03,6.9944e-05
3.1100e+03,6.9388e-05
3.1200e+03,6.8814e-05
3.1300e+03,6.8288e-05
3.1400e+03,6.7866e-05
3.1500e+03,6.7577e-05
3.1600e+03,6.7424e-05
3.1700e+03,6.7385e-05
3.1800e+03,6.7428e-05
3.1900e+03,6.7508e-05
3.2000e+03,6.7583e-05
3.2100e+03,6.7621e-05
3.2200e+03,6.7614e-05
3.2300e+03,6.7567e-05
3.2400e+03,6.7496e-05
3.2500e+03,6.7415e-05
3.2600e+03,6.7339e-05
3.2700e+03,6.7276e-05
3.2800e+03,6.7229e-05
3.2900e+03,6.7198e-05
3.3000e+03,6.7177e-05
3.3100e+03,6.7163e-05
3.3200e+03,6.7153e-05
3.3300e+03,6.7145e-05
3.3400e+03,6.7139e-05
3.3500e+03,6.7137e-05
3.3600e+03,6.7141e-05
3.3700e+03,6.7150e-05
3.3800e+03,6.7162e-05
3.3900e+03,6.7172e-05
3.4000e+03,6.7175e-05
3.4100e+03,6.7166e-05
3.4200e+03,6.7141e-05
3.4300e+03,6.7098e-05
3.4400e+03,6.7040e-05
3.4500e+03,6.6971e-05
3.4600e+03,6.6899e-05
3.4700e+03,6.6826e-05
3.4800e+03,6.6746e-05
3.4900e+03,6.6649e-05
3.5000e+03,6.6523e-05
3.5100e+03,6.6368e-05
3.5200e+03,6.6195e-05
3.5300e+03,6.6021e-05
3.5400e+03,6.5859e-05
3.5500e+03,6.5721e-05
3.5600e+03,6.5612e-05
3.5700e+03,6.5530e-05
3.5800e+03,6.5470e-05
3.5900e+03,6.5426e-05
3.6000e+03,6.5390e-05
3.6100e+03,6.5357e-05
3.6200e+03,6.5324e-05
3.6300e+03,6.5298e-05
3.6400e+03,6.5286e-05
3.6500e+03,6.5300e-05
3.6600e+03,6.5350e-05
3.6700e+03,6.5434e-05
3.6800e+03,6.5541e-05
3.6900e+03,6.5655e-05
3.7000e+03,6.5753e-05
3.7100e+03,6.5818e-05
3.7200e+03,6.5837e-05
3.7300e+03,6.5802e-05
3.7400e+03,6.5714e-05
3.7500e+03,6.5583e-05
3.7600e+03,6.5428e-05
3.7700e+03,6.5277e-05
3.7800e+03,6.5156e-05
3.7900e+03,6.5084e-05
3.8000e+03,6.5067e-05
3.8100e+03,6.5096e-05
3.8200e+03,6.5157e-05
3.8300e+03,6.5231e-05
3.8400e+03,6.5299e-05
3.8500e+03,6.5347e-05
3.8600e+03,6.5372e-05
3.8700e+03,6.5376e-05
3.8800e+03,6.5366e-05
3.8900e+03,6.5342e-05
3.9000e+03,6.5295e-05
3.9100e+03,6.5206e-05
3.9200e+03,6.5058e-05
3.9300e+03,6.4843e-05
3.9400e+03,6.4572e-05
3.9500e+03,6.4271e-05
3.9600e+03,6.3978e-05
3.9700e+03,6.3725e-05
3.9800e+03,6.3532e-05
3.9900e+03,6.3391e-05
4.0000e+03,6.3271e-05
4.0100e+03,6.3125e-05
4.0200e+03,6.2904e-05
4.0300e+03,6.2580e-05
4.0400e+03,6.2147e-05
4.0500e+03,6.1629e-05
4.0600e+03,6.1067e-05
4.0700e+03,6.0515e-05
4.0800e+03,6.0016e-05
4.0900e+03,5.9596e-05
4.1000e+03,5.9254e-05
4.1100e+03,5.8961e-05
4.1200e+03,5.8675e-05
4.1300e+03,5.8362e-05
4.1400e+03,5.8014e-05
4.1500e+03,5.7649e-05
4.1600e+03,5.7306e-05
4.1700e+03,5.7027e-05
4.1800e+03,5.6842e-05
4.1900e+03,5.6763e-05
4.2000e+03,5.6784e-05
4.2100e+03,5.6882e-05
4.2200e+03,5.7028e-05
4.2300e+03,5.7194e-05
4.2400e+03,5.7356e-05
4.2500e+03,5.7498e-05
4.2600e+03,5.7611e-05
4.2700e+03,5.7689e-05
4.2800e+03,5.7724e-05
4.2900e+03,5.7706e-05
4.3000e+03,5.7632e-05
4.3100e+03,5.7507e-05
4.3200e+03,5.7343e-05
4.3300e+03,5.7157e-05
4.3400e+03,5.6966e-05
4.3500e+03,5.6785e-05
4.3600e+03,5.6622e-05
4.3700e+03,5.6478e-05
4.3800e+03,5.6341e-05
4.3900e+03,5.6186e-05
4.4000e+03,5.5986e-05
4.4100e+03,5.5718e-05
4.4200e+03,5.5370e-05
4.4300e+03,5.4947e-05
4.4400e+03,5.4467e-05
4.4500e+03,5.3955e-05
4.4600e+03,5.3445e-05
4.4700e+03,5.2972e-05
4.4800e+03,5.2570e-05
4.4900e+03,5.2265e-05
4.5000e+03,5.2067e-05
4.5100e+03,5.1974e-05
4.5200e+03,5.1974e-05
4.5300e+03,5.2045e-05
4.5400e+03,5.2158e-05
4.5500e+03,5.2289e-05
4.5600e+03,5.2416e-05
4.5700e+03,5.2528e-05
4.5800e+03,5.2621e-05
4.5900e+03,5.2699e-05
4.6000e+03,5.2770e-05
4.6100e+03,5.2842e-05
4.6200e+03,5.2922e-05
4.6300e+03,5.3008e-05
4.6400e+03,5.3093e-05
4.6500e+03,5.3162e-05
4.6600e+03,5.3205e-05
4.6700e+03,5.3215e-05
4.6800e+03,5.3194e-05
4.6900e+03,5.3150e-05
4.7000e+03,5.3095e-05
4.7100e+03,5.3045e-05
4.7200e+03,5.3016e-05
4.7300e+03,5.3016e-05
4.7400e+03,5.3047e-05
4.7500e+03,5.3096e-05
4.7600e+03,5.3147e-05
4.7700e+03,5.3181e-05
4.7800e+03,5.3183e-05
4.7900e+03,5.3143e-05
4.8000e+03,5.3055e-05
4.8100e+03,5.2917e-05
4.8200e+03,5.2733e-05
4.8300e+03,5.2513e-05
4.8400e+03,5.2273e-05
4.8500e+03,5.2028e-05
4.8600e+03,5.1792e-05
4.8700e+03,5.1570e-05
4.8800e+03,5.1359e-05
4.8900e+03,5.1153e-05
4.9000e+03,5.0948e-05
4.9100e+03,5.0750e-05
4.9200e+03,5.0566e-05
4.9300e+03,5.0405e-05
4.9400e+03,5.0266e-05
4.9500e+03,5.0148e-05
4.9600e+03,5.0047e-05
4.9700e+03,4.9962e-05
4.9800e+03,4.9901e-05
4.9900e+03,4.9878e-05
5.0000e+03,4.9910e-05
5.0100e+03,5.0014e-05
5.0200e+03,5.0191e-05
5.0300e+03,5.0437e-05
5.0400e+03,5.0736e-05
5.0500e+03,5.1066e-05
5.0600e+03,5.1399e-05
5.0700e+03,5.1701e-05
5.0800e+03,5.1928e-05
5.0900e+03,5.2042e-05
5.1000e+03,5.2012e-05
5.1100e+03,5.1826e-05
5.1200e+03,5.1476e-05
5.1300e+03,5.0952e-05
5.1400e+03,5.0242e-05
5.1500e+03,4.9345e-05
5.1600e+03,4.8281e-05
5.1700e+03,4.7100e-05
5.1800e+03,4.5861e-05
5.1900e+03,4.4629e-05
5.2000e+03,4.3462e-05
5.2100e+03,4.2410e-05
5.2200e+03,4.1515e-05
5.2300e+03,4.0805e-05
5.2400e+03,4.0296e-05
5.2500e+03,3.9987e-05
5.2600e+03,3.9863e-05
5.2700e+03,3.9900e-05
5.2800e+03,4.0067e-05
5.2900e+03,4.0326e-05
5.3000e+03,4.0626e-05
5.3100e+03,4.0904e-05
5.3200e+03,4.1099e-05
5.3300e+03,4.1175e-05
5.3400e+03,4.1137e-05
5.3500e+03,4.1026e-05
5.3600e+03,4.0901e-05
5.3700e+03,4.0821e-05
5.3800e+03,4.0835e-05
5.3900e+03,4.0980e-05
5.4000e+03,4.1279e-05
5.4100e+03,4.1735e-05
5.4200e+03,4.2332e-05
5.4300e+03,4.3033e-05
5.4400e+03,4.3783e-05
5.4500e+03,4.4521e-05
5.4600e+03,4.5187e-05
5.4700e+03,4.5736e-05
5.4800e+03,4.6148e-05
5.4900e+03,4.6429e-05
5.5000e+03,4.6599e-05
5.5100e+03,4.6678e-05
5.5200e+03,4.6674e-05
5.5300e+03,4.6585e-05
5.5400e+03,4.6407e-05
5.5500e+03,4.6144e-05
5.5600e+03,4.5804e-05
5.5700e+03,4.5405e-05
5.5800e+03,4.4974e-05
5.5900e+03,4.4537e-05
5.6000e+03,4.4110e-05
5.6100e+03,4.3704e-05
5.6200e+03,4.3326e-05
5.6300e+03,4.2984e-05
5.6400e+03,4.2684e-05
5.6500e+03,4.2432e-05
5.6600e+03,4.2233e-05
5.6700e+03,4.2088e-05
5.6800e+03,4.1996e-05
5.6900e+03,4.1949e-05
5.7000e+03,4.1938e-05
5.7100e+03,4.1954e-05
5.7200e+03,4.1994e-05
5.7300e+03,4.2067e-05
5.7400e+03,4.2186e-05
5.7500e+03,4.2370e-05
5.7600e+03,4.2625e-05
5.7700e+03,4.2950e-05
5.7800e+03,4.3328e-05
5.7900e+03,4.3742e-05
5.8000e+03,4.4177e-05
5.8100e+03,4.4622e-05
5.8200e+03,4.5066e-05
5.8300e+03,4.5488e-05
5.8400e+03,4.5857e-05
5.8500e+03,4.6146e-05
5.8600e+03,4.6339e-05
5.8700e+03,4.6443e-05
5.8800e+03,4.6481e-05
5.8900e+03,4.6478e-05
5.9000e+03,4.6456e-05
5.9100e+03,4.6425e-05
5.9200e+03,4.6394e-05
5.9300e+03,4.6368e-05
5.9400e+03,4.6353e-05
5.9500e+03,4.6353e-05
5.9600e+03,4.6365e-05
5.9700e+03,4.6387e-05
5.9800e+03,4.6413e-05
5.9900e+03,4.6440e-05
6.0000e+03,4.6470e-05
6.0100e+03,4.6507e-05
6.0200e+03,4.6557e-05
6.0300e+03,4.6629e-05
6.0400e+03,4.6732e-05
6.0500e+03,4.6875e-05
6.0600e+03,4.7060e-05
6.0700e+03,4.7288e-05
6.0800e+03,4.7557e-05
6.0900e+03,4.7865e-05
6.1000e+03,4.8212e-05
6.1100e+03,4.8601e-05
6.1200e+03,4.9035e-05
6.1300e+03,4.9506e-05
6.1400e+03,4.9998e-05
6.1500e+03,5.0486e-05
6.1600e+03,5.0949e-05
6.1700e+03,5.1371e-05
6.1800e+03,5.1750e-05
6.1900e+03,5.2085e-05
6.2000e+03,5.2380e-05
6.2100e+03,5.2641e-05
6.2200e+03,5.2876e-05
6.2300e+03,5.3094e-05
6.2400e+03,5.3307e-05
6.2500e+03,5.3520e-05
6.2600e+03,5.3735e-05
6.2700e+03,5.3952e-05
6.2800e+03,5.4165e-05
6.2900e+03,5.4370e-05
6.3000e+03,5.4567e-05
6.3100e+03,5.4763e-05
6.3200e+03,5.4971e-05
6.3300e+03,5.5199e-05
6.3400e+03,5.5450e-05
6.3500e+03,5.5711e-05
6.3600e+03,5.5963e-05
6.3700e+03,5.6181e-05
6.3800e+03,5.6345e-05
6.3900e+03,5.6446e-05
6.4000e+03,5.6484e-05
6.4100e+03,5.6468e-05
6.4200e+03,5.6415e-05
6.4300e+03,5.6340e-05
6.4400e+03,5.6255e-05
6.4500e+03,5.6170e-05
6.4600e+03,5.6089e-05
6.4700e+03,5.6017e-05
6.4800e+03,5.5958e-05
6.4900e+03,5.5917e-05
6.5000e+03,5.5898e-05
6.5100e+03,5.5895e-05
6.5200e+03,5.5897e-05
6.5300e+03,5.5883e-05
6.5400e+03,5.5838e-05
6.5500e+03,5.5751e-05
6.5600e+03,5.5614e-05
6.5700e+03,5.5420e-05
6.5800e+03,5.5165e-05
6.5900e+03,5.4857e-05
6.6000e+03,5.4511e-05
6.6100e+03,5.4149e-05
6.6200e+03,5.3795e-05
6.6300e+03,5.3469e-05
6.6400e+03,5.3183e-05
6.6500e+03,5.2943e-05
6.6600e+03,5.2752e-05
6.6700e+03,5.2606e-05
6.6800e+03,5.2501e-05
6.6900e+03,5.2431e-05
6.7000e+03,5.2385e-05
6.7100e+03,5.2352e-05
6.7200e+03,5.2318e-05
6.7300e+03,5.2272e-05
6.7400e+03,5.2208e-05
6.7500e+03,5.2128e-05
6.7600e+03,5.2034e-05
6.7700e+03,5.1933e-05
6.7800e+03,5.1830e-05
6.7900e+03,5.1729e-05
6.8000e+03,5.1629e-05
6.8100e+03,5.1524e-05
6.8200e+03,5.1404e-05
6.8300e+03,5.1260e-05
6.8400e+03,5.1087e-05
6.8500e+03,5.0884e-05
6.8600e+03,5.0658e-05
6.8700e+03,5.0419e-05
6.8800e+03,5.0178e-05
6.8900e+03,4.9940e-05
6.9000e+03,4.9705e-05
6.9100e+03,4.9465e-05
6.9200e+03,4.9210e-05
6.9300e+03,4.8934e-05
6.9400e+03,4.8638e-05
6.9500e+03,4.8328e-05
6.9600e+03,4.8018e-05
6.9700e+03,4.7725e-05
6.9800e+03,4.7471e-05
6.9900e+03,4.7273e-05
7.0000e+03,4.7142e-05
7.0100e+03,4.7082e-05
7.0200e+03,4.7085e-05
7.0300e+03,4.7140e-05
7.0400e+03,4.7234e-05
7.0500e+03,4.7348e-05
7.0600e+03,4.7459e-05
7.0700e+03,4.7544e-05
7.0800e+03,4.7587e-05
7.0900e+03,4.7589e-05
7.1000e+03,4.7570e-05
7.1100e+03,4.7562e-05
7.1200e+03,4.7601e-05
7.1300e+03,4.7711e-05
7.1400e+03,4.7893e-05
7.1500e+03,4.8126e-05
7.1600e+03,4.8374e-05
7.1700e+03,4.8610e-05
7.1800e+03,4.8820e-05
7.1900e+03,4.9009e-05
7.2000e+03,4.9197e-05
7.2100e+03,4.9408e-05
7.2200e+03,4.9656e-05
7.2300e+03,4.9940e-05
7.2400e+03,5.0246e-05
7.2500e+03,5.0555e-05
7.2600e+03,5.0850e-05
7.2700e+03,5.1122e-05
7.2800e+03,5.1371e-05
7.2900e+03,5.1605e-05
7.3000e+03,5.1829e-05
7.3100e+03,5.2043e-05
7.3200e+03,5.2235e-05
7.3300e+03,5.2382e-05
7.3400e+03,5.2462e-05
7.3500e+03,5.2460e-05
7.3600e+03,5.2373e-05
7.3700e+03,5.2211e-05
7.3800e+03,5.1993e-05
7.3900e+03,5.1737e-05
7.4000e+03,5.1460e-05
7.4100e+03,5.1169e-05
7.4200e+03,5.0868e-05
7.4300e+03,5.0546e-05
7.4400e+03,5.0192e-05
7.4500e+03,4.9787e-05
7.4600e+03,4.9319e-05
7.4700e+03,4.8784e-05
7.4800e+03,4.8181e-05
7.4900e+03,4.7517e-05
7.5000e+03,4.6804e-05
7.5100e+03,4.6057e-05
7.5200e+03,4.5295e-05
7.5300e+03,4.4538e-05
7.5400e+03,4.3816e-05
7.5500e+03,4.3163e-05
7.5600e+03,4.2614e-05
7.5700e+03,4.2190e-05
7.5800e+03,4.1882e-05
7.5900e+03,4.1651e-05
7.6000e+03,4.1440e-05
7.6100e+03,4.1201e-05
7.6200e+03,4.0906e-05
7.6300e+03,4.0546e-05
7.6400e+03,4.0130e-05
7.6500e+03,3.9675e-05
7.6600e+03,3.9210e-05
7.6700e+03,3.8772e-05
7.6800e+03,3.8399e-05
7.6900e+03,3.8122e-05
7.7000e+03,3.7963e-05
7.7100e+03,3.7932e-05
7.7200e+03,3.8016e-05
7.7300e+03,3.8180e-05
7.7400e+03,3.8368e-05
7.7500e+03,3.8522e-05
7.7600e+03,3.8596e-05
7.7700e+03,3.8578e-05
7.7800e+03,3.8487e-05
7.7900e+03,3.8367e-05
7.8000e+03,3.8269e-05
7.8100e+03,3.8231e-05
7.8200e+03,3.8266e-05
7.8300e+03,3.8360e-05
7.8400e+03,3.8485e-05
7.8500e+03,3.8603e-05
7.8600e+03,3.8683e-05
7.8700e+03,3.8707e-05
7.8800e+03,3.8670e-05
7.8900e+03,3.8584e-05
7.9000e+03,3.8470e-05
7.9100e+03,3.8352e-05
7.9200e+03,3.8247e-05
7.9300e+03,3.8167e-05
7.9400e+03,3.8117e-05
7.9500e+03,3.8105e-05
7.9600e+03,3.8131e-05
7.9700e+03,3.8191e-05
7.9800e+03,3.8275e-05
7.9900e+03,3.8366e-05
8.0000e+03,3.8452e-05
8.0100e+03,3.8522e-05
8.0200e+03,3.8574e-05
8.0300e+03,3.8613e-05
8.0400e+03,3.8646e-05
8.0500e+03,3.8679e-05
8.0600e+03,3.8715e-05
8.0700e+03,3.8752e-05
8.0800e+03,3.8783e-05
8.0900e+03,3.8802e-05
8.1000e+03,3.8803e-05
8.1100e+03,3.8776e-05
8.1200e+03,3.8714e-05
8.1300e+03,3.8611e-05
8.1400e+03,3.8466e-05
8.1500e+03,3.8281e-05
8.1600e+03,3.8065e-05
8.1700e+03,3.7831e-05
8.1800e+03,3.7594e-05
8.1900e+03,3.7373e-05
8.2000e+03,3.7181e-05
8.2100e+03,3.7020e-05
8.2200e+03,3.6882e-05
8.2300e+03,3.6757e-05
8.2400e+03,3.6639e-05
8.2500e+03,3.6529e-05
8.2600e+03,3.6441e-05
8.2700e+03,3.6386e-05
8.2800e+03,3.6368e-05
8.2900e+03,3.6381e-05
8.3000e+03,3.6409e-05
8.3100e+03,3.6433e-05
8.3200e+03,3.6435e-05
8.3300e+03,3.6400e-05
8.3400e+03,3.6323e-05
8.3500e+03,3.6209e-05
8.3600e+03,3.6071e-05
8.3700e+03,3.5920e-05
8.3800e+03,3.5765e-05
8.3900e+03,3.5605e-05
8.4000e+03,3.5436e-05
8.4100e+03,3.5250e-05
8.4200e+03,3.5044e-05
8.4300e+03,3.4821e-05
8.4400e+03,3.4592e-05
8.4500e+03,3.4372e-05
8.4600e+03,3.4176e-05
8.4700e+03,3.4017e-05
8.4800e+03,3.3900e-05
8.4900e+03,3.3824e-05
8.5000e+03,3.3787e-05
8.5100e+03,3.3782e-05
8.5200e+03,3.3802e-05
8.5300e+03,3.3835e-05
8.5400e+03,3.3871e-05
8.5500e+03,3.3898e-05
8.5600e+03,3.3910e-05
8.5700e+03,3.3905e-05
8.5800e+03,3.3883e-05
8.5900e+03,3.3846e-05
8.6000e+03,3.3794e-05
8.6100e+03,3.3730e-05
8.6200e+03,3.3653e-05
8.6300e+03,3.3563e-05
8.6400e+03,3.3459e-05
8.6500e+03,3.3337e-05
8.6600e+03,3.3192e-05
8.6700e+03,3.3017e-05
8.6800e+03,3.2810e-05
8.6900e+03,3.2568e-05
8.7000e+03,3.2296e-05
8.7100e+03,3.2007e-05
8.7200e+03,3.1717e-05
8.7300e+03,3.1447e-05
8.7400e+03,3.1215e-05
8.7500e+03,3.1035e-05
8.7600e+03,3.0912e-05
8.7700e+03,3.0840e-05
8.7800e+03,3.0799e-05
8.7900e+03,3.0755e-05
8.8000e+03,3.0671e-05
8.8100e+03,3.0517e-05
8.8200e+03,3.0280e-05
8.8300e+03,2.9969e-05
8.8400e+03,2.9610e-05
8.8500e+03,2.9233e-05
8.8600e+03,2.8868e-05
8.8700e+03,2.8533e-05
8.8800e+03,2.8242e-05
8.8900e+03,2.8007e-05
8.9000e+03,2.7840e-05
8.9100e+03,2.7747e-05
8.9200e+03,2.7723e-05
8.9300e+03,2.7753e-05
8.9400e+03,2.7819e-05
8.9500e+03,2.7903e-05
8.9600e+03,2.7988e-05
8.9700e+03,2.8052e-05
8.9800e+03,2.8074e-05
8.9900e+03,2.8048e-05
9.0000e+03,2.7987e-05
9.0100e+03,2.7923e-05
9.0200e+03,2.7888e-05
9.0300e+03,2.7902e-05
9.0400e+03,2.7964e-05
9.0500e+03,2.8069e-05
9.0600e+03,2.8217e-05
9.0700e+03,2.8419e-05
