# Time , Side-Flux
0.0000e+00,0.0000e+00
1.0000e+01,1.0495e-10
2.0000e+01,1.8947e-10
3.0000e+01,2.4710e-10
4.0000e+01,2.8302e-10
5.0000e+01,3.0509e-10
6.0000e+01,3.1913e-10
7.0000e+01,3.2855e-10
8.0000e+01,3.3518e-10
9.0000e+01,3.4001e-10
1.0000e+02,3.4363e-10
1.1000e+02,3.4639e-10
1.2000e+02,3.4854e-10
1.3000e+02,3.5022e-10
1.4000e+02,3.5155e-10
1.5000e+02,3.5261e-10
1.6000e+02,3.5346e-10
1.7000e+02,3.5416e-10
1.8000e+02,3.5475e-10
1.9000e+02,3.5525e-10
2.0000e+02,3.5568e-10
2.1000e+02,3.5603e-10
2.2000e+02,3.5632e-10
2.3000e+02,3.5653e-10
2.4000e+02,3.5670e-10
2.5000e+02,3.5683e-10
2.6000e+02,3.5693e-10
2.7000e+02,3.5703e-10
2.8000e+02,3.5714e-10
2.9000e+02,3.5726e-10
3.0000e+02,3.5735e-10
3.1000e+02,3.5744e-10
3.2000e+02,3.5761e-10
3.3000e+02,3.5782e-10
3.4000e+02,3.5791e-10
3.5000e+02,3.5785e-10
3.6000e+02,3.5783e-10
3.7000e+02,3.5799e-10
3.8000e+02,3.5824e-10
3.9000e+02,3.5842e-10
4.0000e+02,3.5843e-10
4.1000e+02,3.5830e-10
4.2000e+02,3.5818e-10
4.3000e+02,3.5817e-10
4.4000e+02,3.5828e-10
4.5000e+02,3.5840e-10
4.6000e+02,3.5845e-10
4.7000e+02,3.5845e-10
4.8000e+02,3.5841e-10
4.9000e+02,3.5838e-10
5.0000e+02,3.5837e-10
5.1000e+02,3.5836e-10
5.2000e+02,3.5835e-10
5.3000e+02,3.5834e-10
5.4000e+02,3.5831e-10
5.5000e+02,3.5824e-10
5.6000e+02,3.5811e-10
5.7000e+02,3.5793e-10
5.8000e+02,3.5774e-10
5.9000e+02,3.5761e-10
6.0000e+02,3.5759e-10
6.1000e+02,3.5767e-10
6.2000e+02,3.5774e-10
6.3000e+02,3.5770e-10
6.4000e+02,3.5761e-10
6.5000e+02,3.5757e-10
6.6000e+02,3.5764e-10
6.7000e+02,3.5774e-10
6.8000e+02,3.5772e-10
6.9000e+02,3.5752e-10
7.0000e+02,3.5727e-10
7.1000e+02,3.5725e-10
7.2000e+02,3.5757e-10
7.3000e+02,3.5814e-10
7.4000e+02,3.5865e-10
7.5000e+02,3.5878e-10
7.6000e+02,3.5847e-10
7.7000e+02,3.5785e-10
7.8000e+02,3.5713e-10
7.9000e+02,3.5653e-10
8.0000e+02,3.5628e-10
8.1000e+02,3.5656e-10
8.2000e+02,3.5734e-10
8.3000e+02,3.5834e-10
8.4000e+02,3.5915e-10
8.5000e+02,3.5941e-10
8.6000e+02,3.5910e-10
8.7000e+02,3.5841e-10
8.8000e+02,3.5747e-10
8.9000e+02,3.5634e-10
9.0000e+02,3.5524e-10
9.1000e+02,3.5462e-10
9.2000e+02,3.5484e-10
9.3000e+02,3.5574e-10
9.4000e+02,3.5681e-10
9.5000e+02,3.5772e-10
9.6000e+02,3.5859e-10
9.7000e+02,3.5957e-10
9.8000e+02,3.6033e-10
9.9000e+02,3.6012e-10
1.0000e+03,3.5845e-10
1.0100e+03,3.5574e-10
1.0200e+03,3.5326e-10
1.0300e+03,3.5194e-10
1.0400e+03,3.5157e-10
1.0500e+03,3.5153e-10
1.0600e+03,3.5170e-10
1.0700e+03,3.5248e-10
1.0800e+03,3.5423e-10
1.0900e+03,3.5684e-10
1.1000e+03,3.5940e-10
1.1100e+03,3.6084e-10
1.1200e+03,3.6089e-10
1.1300e+03,3.6008e-10
1.1400e+03,3.5907e-10
1.1500e+03,3.5826e-10
1.1600e+03,3.5783e-10
1.1700e+03,3.5768e-10
1.1800e+03,3.5741e-10
1.1900e+03,3.5669e-10
1.2000e+03,3.5563e-10
1.2100e+03,3.5462e-10
1.2200e+03,3.5403e-10
1.2300e+03,3.5408e-10
1.2400e+03,3.5477e-10
1.2500e+03,3.5581e-10
1.2600e+03,3.5668e-10
1.2700e+03,3.5695e-10
1.2800e+03,3.5661e-10
1.2900e+03,3.5587e-10
1.3000e+03,3.5497e-10
1.3100e+03,3.5422e-10
1.3200e+03,3.5395e-10
1.3300e+03,3.5428e-10
1.3400e+03,3.5509e-10
1.3500e+03,3.5626e-10
1.3600e+03,3.5758e-10
1.3700e+03,3.5874e-10
1.3800e+03,3.5938e-10
1.3900e+03,3.5927e-10
1.4000e+03,3.5853e-10
1.4100e+03,3.5759e-10
1.4200e+03,3.5687e-10
1.4300e+03,3.5649e-10
1.4400e+03,3.5636e-10
1.4500e+03,3.5634e-10
1.4600e+03,3.5634e-10
1.4700e+03,3.5634e-10
1.4800e+03,3.5634e-10
1.4900e+03,3.5635e-10
1.5000e+03,3.5635e-10
1.5100e+03,3.5635e-10
1.5200e+03,3.5635e-10
1.5300e+03,3.5633e-10
1.5400e+03,3.5629e-10
1.5500e+03,3.5624e-10
1.5600e+03,3.5619e-10
1.5700e+03,3.5606e-10
1.5800e+03,3.5583e-10
1.5900e+03,3.5549e-10
1.6000e+03,3.5517e-10
1.6100e+03,3.5495e-10
1.6200e+03,3.5486e-10
1.6300e+03,3.5504e-10
1.6400e+03,3.5564e-10
1.6500e+03,3.5650e-10
1.6600e+03,3.5711e-10
1.6700e+03,3.5703e-10
1.6800e+03,3.5625e-10
1.6900e+03,3.5519e-10
1.7000e+03,3.5440e-10
1.7100e+03,3.5411e-10
1.7200e+03,3.5426e-10
1.7300e+03,3.5482e-10
1.7400e+03,3.5576e-10
1.7500e+03,3.5683e-10
1.7600e+03,3.5756e-10
1.7700e+03,3.5765e-10
1.7800e+03,3.5719e-10
1.7900e+03,3.5648e-10
1.8000e+03,3.5580e-10
1.8100e+03,3.5530e-10
1.8200e+03,3.5502e-10
1.8300e+03,3.5501e-10
1.8400e+03,3.5526e-10
1.8500e+03,3.5561e-10
1.8600e+03,3.5584e-10
1.8700e+03,3.5582e-10
1.8800e+03,3.5562e-10
1.8900e+03,3.5542e-10
1.9000e+03,3.5540e-10
1.9100e+03,3.5562e-10
1.9200e+03,3.5603e-10
1.9300e+03,3.5656e-10
1.9400e+03,3.5709e-10
1.9500e+03,3.5741e-10
1.9600e+03,3.5733e-10
1.9700e+03,3.5679e-10
1.9800e+03,3.5589e-10
1.9900e+03,3.5492e-10
2.0000e+03,3.5439e-10
2.0100e+03,3.5458e-10
2.0200e+03,3.5520e-10
2.0300e+03,3.5547e-10
2.0400e+03,3.5502e-10
2.0500e+03,3.5437e-10
2.0600e+03,3.5409e-10
2.0700e+03,3.5405e-10
2.0800e+03,3.5393e-10
2.0900e+03,3.5373e-10
2.1000e+03,3.5346e-10
2.1100e+03,3.5306e-10
2.1200e+03,3.5251e-10
2.1300e+03,3.5185e-10
2.1400e+03,3.5122e-10
2.1500e+03,3.5082e-10
2.1600e+03,3.5100e-10
2.1700e+03,3.5219e-10
2.1800e+03,3.5461e-10
2.1900e+03,3.5775e-10
2.2000e+03,3.6040e-10
2.2100e+03,3.6153e-10
2.2200e+03,3.6120e-10
2.2300e+03,3.6016e-10
2.2400e+03,3.5904e-10
2.2500e+03,3.5809e-10
2.2600e+03,3.5735e-10
2.2700e+03,3.5675e-10
2.2800e+03,3.5619e-10
2.2900e+03,3.5566e-10
2.3000e+03,3.5524e-10
2.3100e+03,3.5499e-10
2.3200e+03,3.5495e-10
2.3300e+03,3.5505e-10
2.3400e+03,3.5519e-10
2.3500e+03,3.5525e-10
2.3600e+03,3.5508e-10
2.3700e+03,3.5473e-10
2.3800e+03,3.5445e-10
2.3900e+03,3.5450e-10
2.4000e+03,3.5486e-10
2.4100e+03,3.5530e-10
2.4200e+03,3.5552e-10
2.4300e+03,3.5543e-10
2.4400e+03,3.5515e-10
2.4500e+03,3.5486e-10
2.4600e+03,3.5470e-10
2.4700e+03,3.5472e-10
2.4800e+03,3.5489e-10
2.4900e+03,3.5517e-10
2.5000e+03,3.5547e-10
2.5100e+03,3.5562e-10
2.5200e+03,3.5559e-10
2.5300e+03,3.5544e-10
2.5400e+03,3.5528e-10
2.5500e+03,3.5512e-10
2.5600e+03,3.5499e-10
2.5700e+03,3.5490e-10
2.5800e+03,3.5488e-10
2.5900e+03,3.5490e-10
2.6000e+03,3.5490e-10
2.6100e+03,3.5484e-10
2.6200e+03,3.5469e-10
2.6300e+03,3.5444e-10
2.6400e+03,3.5408e-10
2.6500e+03,3.5365e-10
2.6600e+03,3.5327e-10
2.6700e+03,3.5317e-10
2.6800e+03,3.5343e-10
2.6900e+03,3.5389e-10
2.7000e+03,3.5423e-10
2.7100e+03,3.5441e-10
2.7200e+03,3.5468e-10
2.7300e+03,3.5532e-10
2.7400e+03,3.5615e-10
2.7500e+03,3.5663e-10
2.7600e+03,3.5642e-10
2.7700e+03,3.5563e-10
2.7800e+03,3.5474e-10
2.7900e+03,3.5423e-10
2.8000e+03,3.5421e-10
2.8100e+03,3.5441e-10
2.8200e+03,3.5455e-10
2.8300e+03,3.5451e-10
2.8400e+03,3.5427e-10
2.8500e+03,3.5377e-10
2.8600e+03,3.5295e-10
2.8700e+03,3.5193e-10
2.8800e+03,3.5098e-10
2.8900e+03,3.5044e-10
2.9000e+03,3.5066e-10
2.9100e+03,3.5181e-10
2.9200e+03,3.5377e-10
2.9300e+03,3.5605e-10
2.9400e+03,3.5795e-10
2.9500e+03,3.5894e-10
2.9600e+03,3.5897e-10
2.9700e+03,3.5839e-10
2.9800e+03,3.5759e-10
2.9900e+03,3.5681e-10
3.0000e+03,3.5622e-10
3.0100e+03,3.5595e-10
3.0200e+03,3.5585e-10
3.0300e+03,3.5548e-10
3.0400e+03,3.5456e-10
3.0500e+03,3.5332e-10
3.0600e+03,3.5240e-10
3.0700e+03,3.5224e-10
3.0800e+03,3.5281e-10
3.0900e+03,3.5360e-10
3.1000e+03,3.5395e-10
3.1100e+03,3.5341e-10
3.1200e+03,3.5205e-10
3.1300e+03,3.5044e-10
3.1400e+03,3.4921e-10
3.1500e+03,3.4878e-10
3.1600e+03,3.4911e-10
3.1700e+03,3.4985e-10
3.1800e+03,3.5058e-10
3.1900e+03,3.5099e-10
3.2000e+03,3.5097e-10
3.2100e+03,3.5066e-10
3.2200e+03,3.5025e-10
3.2300e+03,3.4981e-10
3.2400e+03,3.4924e-10
3.2500e+03,3.4849e-10
3.2600e+03,3.4780e-10
3.2700e+03,3.4756e-10
3.2800e+03,3.4798e-10
3.2900e+03,3.4874e-10
3.3000e+03,3.4924e-10
3.3100e+03,3.4921e-10
3.3200e+03,3.4880e-10
3.3300e+03,3.4825e-10
3.3400e+03,3.4771e-10
3.3500e+03,3.4737e-10
3.3600e+03,3.4736e-10
3.3700e+03,3.4766e-10
3.3800e+03,3.4805e-10
3.3900e+03,3.4830e-10
3.4000e+03,3.4825e-10
3.4100e+03,3.4797e-10
3.4200e+03,3.4777e-10
3.4300e+03,3.4798e-10
3.4400e+03,3.4868e-10
3.4500e+03,3.4955e-10
3.4600e+03,3.5023e-10
3.4700e+03,3.5065e-10
3.4800e+03,3.5108e-10
3.4900e+03,3.5175e-10
3.5000e+03,3.5251e-10
3.5100e+03,3.5290e-10
3.5200e+03,3.5265e-10
3.5300e+03,3.5192e-10
3.5400e+03,3.5112e-10
3.5500e+03,3.5051e-10
3.5600e+03,3.5015e-10
3.5700e+03,3.4999e-10
3.5800e+03,3.4996e-10
3.5900e+03,3.4996e-10
3.6000e+03,3.4997e-10
3.6100e+03,3.4994e-10
3.6200e+03,3.4985e-10
3.6300e+03,3.4966e-10
3.6400e+03,3.4935e-10
3.6500e+03,3.4907e-10
3.6600e+03,3.4902e-10
3.6700e+03,3.4924e-10
3.6800e+03,3.4944e-10
3.6900e+03,3.4926e-10
3.7000e+03,3.4850e-10
3.7100e+03,3.4737e-10
3.7200e+03,3.4639e-10
3.7300e+03,3.4606e-10
3.7400e+03,3.4673e-10
3.7500e+03,3.4856e-10
3.7600e+03,3.5123e-10
3.7700e+03,3.5385e-10
3.7800e+03,3.5539e-10
3.7900e+03,3.5554e-10
3.8000e+03,3.5492e-10
3.8100e+03,3.5444e-10
3.8200e+03,3.5451e-10
3.8300e+03,3.5474e-10
3.8400e+03,3.5448e-10
3.8500e+03,3.5345e-10
3.8600e+03,3.5185e-10
3.8700e+03,3.5001e-10
3.8800e+03,3.4833e-10
3.8900e+03,3.4721e-10
3.9000e+03,3.4670e-10
3.9100e+03,3.4638e-10
3.9200e+03,3.4609e-10
3.9300e+03,3.4611e-10
3.9400e+03,3.4667e-10
3.9500e+03,3.4769e-10
3.9600e+03,3.4909e-10
3.9700e+03,3.5085e-10
3.9800e+03,3.5284e-10
3.9900e+03,3.5490e-10
4.0000e+03,3.5703e-10
4.0100e+03,3.5947e-10
4.0200e+03,3.6231e-10
4.0300e+03,3.6533e-10
4.0400e+03,3.6827e-10
4.0500e+03,3.7108e-10
4.0600e+03,3.7400e-10
4.0700e+03,3.7729e-10
4.0800e+03,3.8097e-10
4.0900e+03,3.8477e-10
4.1000e+03,3.8836e-10
4.1100e+03,3.9146e-10
4.1200e+03,3.9398e-10
4.1300e+03,3.9591e-10
4.1400e+03,3.9735e-10
4.1500e+03,3.9842e-10
4.1600e+03,3.9920e-10
4.1700e+03,3.9972e-10
4.1800e+03,4.0003e-10
4.1900e+03,4.0015e-10
4.2000e+03,4.0012e-10
4.2100e+03,4.0002e-10
4.2200e+03,3.9992e-10
4.2300e+03,3.9987e-10
4.2400e+03,3.9988e-10
4.2500e+03,3.9990e-10
4.2600e+03,3.9992e-10
4.2700e+03,3.9993e-10
4.2800e+03,3.9992e-10
4.2900e+03,3.9991e-10
4.3000e+03,3.9990e-10
4.3100e+03,3.9990e-10
4.3200e+03,3.9989e-10
4.3300e+03,3.9990e-10
4.3400e+03,3.9990e-10
4.3500e+03,3.9991e-10
4.3600e+03,3.9992e-10
4.3700e+03,3.9993e-10
4.3800e+03,3.9995e-10
4.3900e+03,3.9996e-10
4.4000e+03,3.9997e-10
4.4100e+03,3.9996e-10
4.4200e+03,3.9994e-10
4.4300e+03,3.9991e-10
4.4400e+03,3.9986e-10
4.4500e+03,3.9983e-10
4.4600e+03,3.9980e-10
4.4700e+03,3.9978e-10
4.4800e+03,3.9977e-10
4.4900e+03,3.9975e-10
4.5000e+03,3.9974e-10
4.5100e+03,3.9974e-10
4.5200e+03,3.9977e-10
4.5300e+03,3.9980e-10
4.5400e+03,3.9982e-10
4.5500e+03,3.9985e-10
4.5600e+03,3.9990e-10
4.5700e+03,3.9997e-10
4.5800e+03,4.0003e-10
4.5900e+03,4.0006e-10
4.6000e+03,4.0006e-10
4.6100e+03,4.0006e-10
4.6200e+03,4.0004e-10
4.6300e+03,4.0001e-10
4.6400e+03,3.9995e-10
4.6500e+03,3.9985e-10
4.6600e+03,3.9965e-10
4.6700e+03,3.9932e-10
4.6800e+03,3.9887e-10
4.6900e+03,3.9830e-10
4.7000e+03,3.9762e-10
4.7100e+03,3.9683e-10
4.7200e+03,3.9596e-10
4.7300e+03,3.9504e-10
4.7400e+03,3.9415e-10
4.7500e+03,3.9332e-10
4.7600e+03,3.9248e-10
4.7700e+03,3.9157e-10
4.7800e+03,3.9064e-10
4.7900e+03,3.8985e-10
4.8000e+03,3.8947e-10
4.8100e+03,3.8962e-10
4.8200e+03,3.8988e-10
4.8300e+03,3.8971e-10
4.8400e+03,3.8913e-10
4.8500e+03,3.8863e-10
4.8600e+03,3.8837e-10
4.8700e+03,3.8809e-10
4.8800e+03,3.8758e-10
4.8900e+03,3.8693e-10
4.9000e+03,3.8654e-10
4.9100e+03,3.8696e-10
4.9200e+03,3.8858e-10
4.9300e+03,3.9112e-10
4.9400e+03,3.9361e-10
4.9500e+03,3.9514e-10
4.9600e+03,3.9568e-10
4.9700e+03,3.9584e-10
4.9800e+03,3.9635e-10
4.9900e+03,3.9778e-10
5.0000e+03,4.0028e-10
5.0100e+03,4.0340e-10
5.0200e+03,4.0641e-10
5.0300e+03,4.0862e-10
5.0400e+03,4.0944e-10
5.0500e+03,4.0857e-10
5.0600e+03,4.0631e-10
5.0700e+03,4.0349e-10
5.0800e+03,4.0105e-10
5.0900e+03,3.9986e-10
5.1000e+03,4.0046e-10
5.1100e+03,4.0242e-10
5.1200e+03,4.0414e-10
5.1300e+03,4.0419e-10
5.1400e+03,4.0244e-10
5.1500e+03,3.9948e-10
5.1600e+03,3.9572e-10
5.1700e+03,3.9161e-10
5.1800e+03,3.8811e-10
5.1900e+03,3.8603e-10
5.2000e+03,3.8533e-10
5.2100e+03,3.8538e-10
5.2200e+03,3.8590e-10
5.2300e+03,3.8706e-10
5.2400e+03,3.8898e-10
5.2500e+03,3.9123e-10
5.2600e+03,3.9303e-10
5.2700e+03,3.9381e-10
5.2800e+03,3.9360e-10
5.2900e+03,3.9281e-10
5.3000e+03,3.9191e-10
5.3100e+03,3.9126e-10
5.3200e+03,3.9089e-10
5.3300e+03,3.9058e-10
5.3400e+03,3.9005e-10
5.3500e+03,3.8935e-10
5.3600e+03,3.8873e-10
5.3700e+03,3.8836e-10
5.3800e+03,3.8820e-10
5.3900e+03,3.8797e-10
5.4000e+03,3.8745e-10
5.4100e+03,3.8658e-10
5.4200e+03,3.8540e-10
5.4300e+03,3.8399e-10
5.4400e+03,3.8244e-10
5.4500e+03,3.8106e-10
5.4600e+03,3.8042e-10
5.4700e+03,3.8089e-10
5.4800e+03,3.8196e-10
5.4900e+03,3.8252e-10
5.5000e+03,3.8191e-10
5.5100e+03,3.8043e-10
5.5200e+03,3.7873e-10
5.5300e+03,3.7724e-10
5.5400e+03,3.7605e-10
5.5500e+03,3.7514e-10
5.5600e+03,3.7453e-10
5.5700e+03,3.7418e-10
5.5800e+03,3.7396e-10
5.5900e+03,3.7377e-10
5.6000e+03,3.7357e-10
5.6100e+03,3.7339e-10
5.6200e+03,3.7327e-10
5.6300e+03,3.7320e-10
5.6400e+03,3.7317e-10
5.6500e+03,3.7316e-10
5.6600e+03,3.7316e-10
5.6700e+03,3.7314e-10
5.6800e+03,3.7310e-10
5.6900e+03,3.7305e-10
5.7000e+03,3.7299e-10
5.7100e+03,3.7292e-10
5.7200e+03,3.7279e-10
5.7300e+03,3.7255e-10
5.7400e+03,3.7225e-10
5.7500e+03,3.7190e-10
5.7600e+03,3.7140e-10
5.7700e+03,3.7070e-10
5.7800e+03,3.6976e-10
5.7900e+03,3.6848e-10
5.8000e+03,3.6679e-10
5.8100e+03,3.6502e-10
5.8200e+03,3.6379e-10
5.8300e+03,3.6355e-10
5.8400e+03,3.6399e-10
5.8500e+03,3.6418e-10
5.8600e+03,3.6347e-10
5.8700e+03,3.6201e-10
5.8800e+03,3.6037e-10
5.8900e+03,3.5899e-10
5.9000e+03,3.5795e-10
5.9100e+03,3.5710e-10
5.9200e+03,3.5631e-10
5.9300e+03,3.5560e-10
5.9400e+03,3.5512e-10
5.9500e+03,3.5486e-10
5.9600e+03,3.5456e-10
5.9700e+03,3.5391e-10
5.9800e+03,3.5301e-10
5.9900e+03,3.5216e-10
6.0000e+03,3.5151e-10
6.0100e+03,3.5103e-10
6.0200e+03,3.5064e-10
6.0300e+03,3.5005e-10
6.0400e+03,3.4896e-10
6.0500e+03,3.4737e-10
6.0600e+03,3.4574e-10
6.0700e+03,3.4469e-10
6.0800e+03,3.4444e-10
6.0900e+03,3.4454e-10
6.1000e+03,3.4420e-10
6.1100e+03,3.4287e-10
6.1200e+03,3.4062e-10
6.1300e+03,3.3774e-10
6.1400e+03,3.3433e-10
6.1500e+03,3.3068e-10
6.1600e+03,3.2764e-10
6.1700e+03,3.2593e-10
6.1800e+03,3.2518e-10
6.1900e+03,3.2431e-10
6.2000e+03,3.2254e-10
6.2100e+03,3.1983e-10
6.2200e+03,3.1678e-10
6.2300e+03,3.1418e-10
6.2400e+03,3.1245e-10
6.2500e+03,3.1139e-10
6.2600e+03,3.1045e-10
6.2700e+03,3.0927e-10
6.2800e+03,3.0785e-10
6.2900e+03,3.0648e-10
6.3000e+03,3.0537e-10
6.3100e+03,3.0465e-10
6.3200e+03,3.0440e-10
6.3300e+03,3.0469e-10
6.3400e+03,3.0548e-10
6.3500e+03,3.0664e-10
6.3600e+03,3.0789e-10
6.3700e+03,3.0887e-10
6.3800e+03,3.0927e-10
6.3900e+03,3.0918e-10
6.4000e+03,3.0896e-10
6.4100e+03,3.0892e-10
6.4200e+03,3.0908e-10
6.4300e+03,3.0928e-10
6.4400e+03,3.0946e-10
6.4500e+03,3.0968e-10
6.4600e+03,3.1005e-10
6.4700e+03,3.1057e-10
6.4800e+03,3.1100e-10
6.4900e+03,3.1103e-10
6.5000e+03,3.1058e-10
6.5100e+03,3.0994e-10
6.5200e+03,3.0952e-10
6.5300e+03,3.0963e-10
6.5400e+03,3.1051e-10
6.5500e+03,3.1242e-10
6.5600e+03,3.1542e-10
6.5700e+03,3.1892e-10
6.5800e+03,3.2185e-10
6.5900e+03,3.2344e-10
6.6000e+03,3.2371e-10
6.6100e+03,3.2318e-10
6.6200e+03,3.2238e-10
6.6300e+03,3.2166e-10
6.6400e+03,3.2115e-10
6.6500e+03,3.2084e-10
6.6600e+03,3.2067e-10
6.6700e+03,3.2061e-10
6.6800e+03,3.2062e-10
6.6900e+03,3.2067e-10
6.7000e+03,3.2069e-10
6.7100e+03,3.2064e-10
6.7200e+03,3.2054e-10
6.7300e+03,3.2045e-10
6.7400e+03,3.2048e-10
6.7500e+03,3.2064e-10
6.7600e+03,3.2082e-10
6.7700e+03,3.2075e-10
6.7800e+03,3.2030e-10
6.7900e+03,3.1959e-10
6.8000e+03,3.1888e-10
6.8100e+03,3.1831e-10
6.8200e+03,3.1788e-10
6.8300e+03,3.1763e-10
6.8400e+03,3.1764e-10
6.8500e+03,3.1799e-10
6.8600e+03,3.1854e-10
6.8700e+03,3.1903e-10
6.8800e+03,3.1935e-10
6.8900e+03,3.1962e-10
6.9000e+03,3.1998e-10
6.9100e+03,3.2046e-10
6.9200e+03,3.2098e-10
6.9300e+03,3.2145e-10
6.9400e+03,3.2177e-10
6.9500e+03,3.2182e-10
6.9600e+03,3.2161e-10
6.9700e+03,3.2137e-10
6.9800e+03,3.2143e-10
6.9900e+03,3.2206e-10
7.0000e+03,3.2328e-10
7.0100e+03,3.2485e-10
7.0200e+03,3.2633e-10
7.0300e+03,3.2752e-10
7.0400e+03,3.2851e-10
7.0500e+03,3.2933e-10
7.0600e+03,3.2984e-10
7.0700e+03,3.2993e-10
7.0800e+03,3.2974e-10
7.0900e+03,3.2975e-10
7.1000e+03,3.3053e-10
7.1100e+03,3.3248e-10
7.1200e+03,3.3541e-10
7.1300e+03,3.3836e-10
7.1400e+03,3.4028e-10
7.1500e+03,3.4120e-10
7.1600e+03,3.4233e-10
7.1700e+03,3.4493e-10
7.1800e+03,3.4917e-10
7.1900e+03,3.5440e-10
7.2000e+03,3.5965e-10
7.2100e+03,3.6375e-10
7.2200e+03,3.6575e-10
7.2300e+03,3.6546e-10
7.2400e+03,3.6366e-10
7.2500e+03,3.6169e-10
7.2600e+03,3.6046e-10
7.2700e+03,3.6006e-10
7.2800e+03,3.6007e-10
7.2900e+03,3.6010e-10
7.3000e+03,3.6003e-10
7.3100e+03,3.5989e-10
7.3200e+03,3.5974e-10
7.3300e+03,3.5949e-10
7.3400e+03,3.5894e-10
7.3500e+03,3.5805e-10
7.3600e+03,3.5708e-10
7.3700e+03,3.5646e-10
7.3800e+03,3.5651e-10
7.3900e+03,3.5730e-10
7.4000e+03,3.5857e-10
7.4100e+03,3.5984e-10
7.4200e+03,3.6073e-10
7.4300e+03,3.6109e-10
7.4400e+03,3.6101e-10
7.4500e+03,3.6062e-10
7.4600e+03,3.5998e-10
7.4700e+03,3.5900e-10
7.4800e+03,3.5782e-10
7.4900e+03,3.5696e-10
7.5000e+03,3.5699e-10
7.5100e+03,3.5785e-10
7.5200e+03,3.5892e-10
7.5300e+03,3.5961e-10
7.5400e+03,3.5971e-10
7.5500e+03,3.5927e-10
7.5600e+03,3.5856e-10
7.5700e+03,3.5793e-10
7.5800e+03,3.5753e-10
7.5900e+03,3.5727e-10
7.6000e+03,3.5706e-10
7.6100e+03,3.5687e-10
7.6200e+03,3.5668e-10
7.6300e+03,3.5646e-10
7.6400e+03,3.5623e-10
7.6500e+03,3.5597e-10
7.6600e+03,3.5568e-10
7.6700e+03,3.5536e-10
7.6800e+03,3.5505e-10
7.6900e+03,3.5481e-10
7.7000e+03,3.5465e-10
7.7100e+03,3.5457e-10
7.7200e+03,3.5455e-10
7.7300e+03,3.5457e-10
7.7400e+03,3.5461e-10
7.7500e+03,3.5461e-10
7.7600e+03,3.5446e-10
7.7700e+03,3.5411e-10
7.7800e+03,3.5366e-10
7.7900e+03,3.5333e-10
7.8000e+03,3.5324e-10
7.8100e+03,3.5346e-10
7.8200e+03,3.5411e-10
7.8300e+03,3.5524e-10
7.8400e+03,3.5658e-10
7.8500e+03,3.5766e-10
7.8600e+03,3.5802e-10
7.8700e+03,3.5756e-10
7.8800e+03,3.5664e-10
7.8900e+03,3.5576e-10
7.9000e+03,3.5531e-10
7.9100e+03,3.5543e-10
7.9200e+03,3.5604e-10
7.9300e+03,3.5688e-10
7.9400e+03,3.5765e-10
7.9500e+03,3.5816e-10
7.9600e+03,3.5826e-10
7.9700e+03,3.5790e-10
7.9800e+03,3.5727e-10
7.9900e+03,3.5683e-10
8.0000e+03,3.5708e-10
8.0100e+03,3.5824e-10
8.0200e+03,3.6015e-10
8.0300e+03,3.6234e-10
8.0400e+03,3.6425e-10
8.0500e+03,3.6554e-10
8.0600e+03,3.6625e-10
8.0700e+03,3.6662e-10
8.0800e+03,3.6685e-10
8.0900e+03,3.6709e-10
8.1000e+03,3.6736e-10
8.1100e+03,3.6757e-10
8.1200e+03,3.6759e-10
8.1300e+03,3.6739e-10
8.1400e+03,3.6714e-10
8.1500e+03,3.6708e-10
8.1600e+03,3.6741e-10
8.1700e+03,3.6814e-10
8.1800e+03,3.6920e-10
8.1900e+03,3.7067e-10
8.2000e+03,3.7274e-10
8.2100e+03,3.7536e-10
8.2200e+03,3.7819e-10
8.2300e+03,3.8079e-10
8.2400e+03,3.8288e-10
8.2500e+03,3.8440e-10
8.2600e+03,3.8540e-10
8.2700e+03,3.8598e-10
8.2800e+03,3.8625e-10
8.2900e+03,3.8625e-10
8.3000e+03,3.8603e-10
8.3100e+03,3.8564e-10
8.3200e+03,3.8511e-10
8.3300e+03,3.8450e-10
8.3400e+03,3.8388e-10
8.3500e+03,3.8342e-10
8.3600e+03,3.8326e-10
8.3700e+03,3.8339e-10
8.3800e+03,3.8363e-10
8.3900e+03,3.8375e-10
8.4000e+03,3.8366e-10
8.4100e+03,3.8342e-10
8.4200e+03,3.8316e-10
8.4300e+03,3.8297e-10
8.4400e+03,3.8281e-10
8.4500e+03,3.8262e-10
8.4600e+03,3.8242e-10
8.4700e+03,3.8229e-10
8.4800e+03,3.8224e-10
8.4900e+03,3.8231e-10
8.5000e+03,3.8250e-10
8.5100e+03,3.8274e-10
8.5200e+03,3.8298e-10
8.5300e+03,3.8329e-10
8.5400e+03,3.8375e-10
8.5500e+03,3.8429e-10
8.5600e+03,3.8474e-10
8.5700e+03,3.8503e-10
8.5800e+03,3.8524e-10
8.5900e+03,3.8555e-10
8.6000e+03,3.8593e-10
8.6100e+03,3.8620e-10
8.6200e+03,3.8629e-10
8.6300e+03,3.8633e-10
8.6400e+03,3.8644e-10
8.6500e+03,3.8655e-10
8.6600e+03,3.8653e-10
8.6700e+03,3.8642e-10
8.6800e+03,3.8634e-10
8.6900e+03,3.8636e-10
8.7000e+03,3.8639e-10
8.7100e+03,3.8635e-10
8.7200e+03,3.8624e-10
8.7300e+03,3.8616e-10
8.7400e+03,3.8614e-10
8.7500e+03,3.8609e-10
8.7600e+03,3.8584e-10
8.7700e+03,3.8539e-10
8.7800e+03,3.8492e-10
8.7900e+03,3.8460e-10
8.8000e+03,3.8450e-10
8.8100e+03,3.8468e-10
8.8200e+03,3.8520e-10
8.8300e+03,3.8598e-10
8.8400e+03,3.8687e-10
8.8500e+03,3.8774e-10
8.8600e+03,3.8855e-10
8.8700e+03,3.8915e-10
8.8800e+03,3.8929e-10
8.8900e+03,3.8884e-10
8.9000e+03,3.8803e-10
8.9100e+03,3.8731e-10
8.9200e+03,3.8692e-10
8.9300e+03,3.8674e-10
8.9400e+03,3.8655e-10
8.9500e+03,3.8631e-10
8.9600e+03,3.8612e-10
8.9700e+03,3.8602e-10
8.9800e+03,3.8591e-10
8.9900e+03,3.8569e-10
9.0000e+03,3.8539e-10
9.0100e+03,3.8518e-10
9.0200e+03,3.8517e-10
9.0300e+03,3.8538e-10
9.0400e+03,3.8575e-10
9.0500e+03,3.8618e-10
9.0600e+03,3.8662e-10
9.0700e+03,3.8707e-10
